# OpenSignals Text File Format. Version 1
# {"98:D3:41:FD:4F:0D": {"position": 0, "device": "bitalino_rev", "device name": "98:D3:41:FD:4F:0D", "device connection": "BTH98:D3:41:FD:4F:0D", "sampling rate": 1000, "resolution": [4, 1, 1, 1, 1, 10, 10, 10, 10, 6, 6], "firmware version": 1282, "comments": "", "keywords": "", "mode": 0, "sync interval": 2, "date": "2024-4-12", "time": "10:5:22.308", "channels": [1, 2, 3, 4, 5, 6], "sensor": ["EMGBITREV", "ECGBIT", "EMGBITREV", "EMGBITREV", "EMGBITREV", "EMGBITREV"], "label": ["A1", "A2", "A3", "A4", "A5", "A6"], "column": ["nSeq", "I1", "I2", "O1", "O2", "A1", "A2", "A3", "A4", "A5", "A6"], "special": [{}, {}, {}, {}, {}, {}], "digital IO": [0, 0, 1, 1], "convertedValues": 0}}
# EndOfHeader
0	0	0	0	0	502	0	0	524	39	6	
1	0	0	0	0	503	0	0	516	39	6	
2	0	0	0	0	496	142	0	516	39	6	
3	0	0	0	0	505	783	0	515	39	6	
4	0	0	0	0	503	1022	0	516	39	6	
5	0	0	0	0	501	1022	0	516	39	6	
6	0	0	0	0	501	1023	0	518	39	6	
7	0	0	0	0	508	1023	0	513	39	6	
8	0	0	0	0	523	1023	0	509	39	6	
9	0	0	0	0	511	750	0	507	39	6	
10	0	0	0	0	502	0	0	507	39	6	
11	0	0	0	0	503	0	0	513	39	6	
12	0	0	0	0	499	0	0	529	39	6	
13	0	0	0	0	498	0	0	552	39	6	
14	0	0	0	0	501	0	0	568	39	6	
15	0	0	0	0	499	0	0	572	39	6	
0	0	0	0	0	507	0	0	582	39	6	
1	0	0	0	0	503	0	0	571	39	6	
2	0	0	0	0	496	0	0	577	38	6	
3	0	0	0	0	496	358	0	579	39	6	
4	0	0	0	0	506	1015	0	574	39	6	
5	0	0	0	0	508	1022	0	570	39	6	
6	0	0	0	0	495	1023	0	580	39	6	
7	0	0	0	0	501	1023	0	579	39	6	
8	0	0	0	0	507	1023	0	576	39	6	
9	0	0	0	0	508	1022	0	578	39	6	
10	0	0	0	0	509	480	0	588	39	6	
11	0	0	0	0	509	0	0	580	39	6	
12	0	0	0	0	509	0	0	579	39	6	
13	0	0	0	0	497	0	0	574	39	6	
14	0	0	0	0	504	0	0	572	39	6	
15	0	0	0	0	502	0	0	580	39	6	
0	0	0	0	0	504	0	0	574	39	6	
1	0	0	0	0	502	0	0	576	39	6	
2	0	0	0	0	509	0	0	579	39	6	
3	0	0	0	0	504	0	0	567	39	6	
4	0	0	0	0	500	567	0	549	39	6	
5	0	0	0	0	504	1022	0	532	39	6	
6	0	0	0	0	501	1023	0	519	39	6	
7	0	0	0	0	504	1023	0	525	39	6	
8	0	0	0	0	499	1022	0	539	39	6	
9	0	0	0	0	506	1022	0	543	39	6	
10	0	0	0	0	515	1022	0	558	39	6	
11	0	0	0	0	507	196	0	561	39	6	
12	0	0	0	0	517	0	0	561	39	6	
13	0	0	0	0	508	0	0	560	39	6	
14	0	0	0	0	495	0	0	558	39	6	
15	0	0	0	0	500	0	0	554	39	6	
0	0	0	0	0	504	0	0	543	39	6	
1	0	0	0	0	499	0	0	529	39	6	
2	0	0	0	0	499	0	0	518	39	6	
3	0	0	0	0	506	0	0	512	39	6	
4	0	0	0	0	500	134	0	506	39	6	
5	0	0	0	0	505	761	0	504	39	6	
6	0	0	0	0	499	1022	0	504	39	6	
7	0	0	0	0	498	1023	0	500	39	6	
8	0	0	0	0	498	1022	0	499	39	6	
9	0	0	0	0	506	1023	0	495	39	6	
10	0	0	0	0	515	1023	0	495	39	6	
11	0	0	0	0	504	716	0	497	39	6	
12	0	0	0	0	505	0	0	499	39	6	
13	0	0	0	0	510	0	0	508	39	6	
14	0	0	0	0	502	0	0	531	39	6	
15	0	0	0	0	498	0	0	544	39	6	
0	0	0	0	0	498	0	0	556	39	6	
1	0	0	0	0	501	0	0	570	39	6	
2	0	0	0	0	505	0	0	569	39	6	
3	0	0	0	0	508	0	0	579	39	6	
4	0	0	0	0	504	0	0	578	39	6	
5	0	0	0	0	499	360	0	579	39	6	
6	0	0	0	0	493	1019	0	583	39	6	
7	0	0	0	0	501	1022	0	580	39	6	
8	0	0	0	0	499	1023	0	579	39	6	
9	0	0	0	0	508	1023	0	574	39	6	
10	0	0	0	0	510	1022	0	575	39	6	
11	0	0	0	0	505	1022	0	584	39	6	
12	0	0	0	0	512	469	0	581	39	6	
13	0	0	0	0	507	0	0	573	39	6	
14	0	0	0	0	498	0	0	578	39	6	
15	0	0	0	0	502	0	0	579	39	6	
0	0	0	0	0	507	0	0	572	39	6	
1	0	0	0	0	494	0	0	567	39	6	
2	0	0	0	0	504	0	0	562	39	6	
3	0	0	0	0	503	0	0	558	39	6	
4	0	0	0	0	499	0	0	546	39	6	
5	0	0	0	0	503	0	0	535	39	6	
6	0	0	0	0	504	576	0	528	39	6	
7	0	0	0	0	499	1022	0	527	39	6	
8	0	0	0	0	510	1023	0	523	39	6	
9	0	0	0	0	496	1022	0	516	39	6	
10	0	0	0	0	503	1022	0	510	39	6	
11	0	0	0	0	506	1022	0	510	39	6	
12	0	0	0	0	516	1022	0	504	39	6	
13	0	0	0	0	499	208	0	502	39	6	
14	0	0	0	0	500	0	0	498	39	6	
15	0	0	0	0	504	0	0	495	39	6	
0	0	0	0	0	505	0	0	488	39	6	
1	0	0	0	0	504	0	0	482	39	6	
2	0	0	0	0	498	0	0	481	39	6	
3	0	0	0	0	501	0	0	482	39	6	
4	0	0	0	0	503	0	0	487	39	6	
5	0	0	0	0	499	0	0	489	39	6	
6	0	0	0	0	500	183	0	492	39	6	
7	0	0	0	0	502	802	0	492	39	6	
8	0	0	0	0	498	1022	0	489	39	6	
9	0	0	0	0	502	1022	0	485	39	6	
10	0	0	0	0	501	1022	0	486	39	6	
11	0	0	0	0	511	1023	0	489	39	6	
12	0	0	0	0	510	1023	0	491	39	6	
13	0	0	0	0	511	741	0	494	39	6	
14	0	0	0	0	513	0	0	495	39	6	
15	0	0	0	0	503	0	0	500	39	6	
0	0	0	0	0	502	0	0	520	39	6	
1	0	0	0	0	499	0	0	532	39	6	
2	0	0	0	0	502	0	0	545	39	6	
3	0	0	0	0	496	0	0	563	39	6	
4	0	0	0	0	500	0	0	562	39	6	
5	0	0	0	0	507	0	0	573	39	6	
6	0	0	0	0	508	0	0	571	39	6	
7	0	0	0	0	497	390	0	568	39	6	
8	0	0	0	0	499	1022	0	568	39	6	
9	0	0	0	0	499	1022	0	555	39	6	
10	0	0	0	0	504	1022	0	539	39	6	
11	0	0	0	0	503	1023	0	525	39	6	
12	0	0	0	0	510	1022	0	516	39	6	
13	0	0	0	0	511	1023	0	508	39	6	
14	0	0	0	0	511	475	0	505	39	6	
15	0	0	0	0	509	0	0	500	39	6	
0	0	0	0	0	507	0	0	493	39	6	
1	0	0	0	0	502	0	0	490	39	6	
2	0	0	0	0	498	0	0	491	39	6	
3	0	0	0	0	499	0	0	492	39	6	
4	0	0	0	0	501	0	0	493	39	6	
5	0	0	0	0	506	0	0	496	39	6	
6	0	0	0	0	503	0	0	496	39	6	
7	0	0	0	0	496	0	0	495	39	6	
8	0	0	0	0	495	575	0	491	39	6	
9	0	0	0	0	495	1022	0	489	39	6	
10	0	0	0	0	507	1023	0	490	39	6	
11	0	0	0	0	499	1022	0	494	39	6	
12	0	0	0	0	507	1023	0	499	39	6	
13	0	0	0	0	513	1023	0	503	39	6	
14	0	0	0	0	512	1022	0	504	39	6	
15	0	0	0	0	513	208	0	503	39	6	
0	0	0	0	0	504	0	0	499	39	6	
1	0	0	0	0	497	0	0	495	39	6	
2	0	0	0	0	502	0	0	496	39	6	
3	0	0	0	0	495	0	0	499	39	6	
4	0	0	0	0	504	0	0	499	39	6	
5	0	0	0	0	502	0	0	501	39	6	
6	0	0	0	0	505	0	0	503	39	6	
7	0	0	0	0	498	0	0	504	39	6	
8	0	0	0	0	496	169	0	499	39	6	
9	0	0	0	0	504	793	0	494	39	6	
10	0	0	0	0	505	1022	0	495	39	6	
11	0	0	0	0	501	1023	0	496	39	6	
12	0	0	0	0	494	1023	0	500	39	6	
13	0	0	0	0	511	1023	0	501	39	6	
14	0	0	0	0	511	1023	0	500	39	6	
15	0	0	0	0	515	709	0	499	39	6	
0	0	0	0	0	509	0	0	494	39	6	
1	0	0	0	0	507	0	0	490	39	6	
2	0	0	0	0	500	0	0	491	39	6	
3	0	0	0	0	501	0	0	492	39	6	
4	0	0	0	0	503	0	0	496	39	6	
5	0	0	0	0	496	0	0	497	39	6	
6	0	0	0	0	500	0	0	501	39	6	
7	0	0	0	0	505	0	0	497	39	6	
8	0	0	0	0	504	0	0	493	39	6	
9	0	0	0	0	490	393	0	490	39	6	
10	0	0	0	0	501	1018	0	491	39	6	
11	0	0	0	0	497	1023	0	494	39	6	
12	0	0	0	0	498	1023	0	495	39	6	
13	0	0	0	0	503	1023	0	496	39	6	
14	0	0	0	0	506	1022	0	496	39	6	
15	0	0	0	0	514	1023	0	493	39	6	
0	0	0	0	0	508	459	0	490	39	6	
1	0	0	0	0	501	0	0	486	39	6	
2	0	0	0	0	507	0	0	497	39	6	
3	0	0	0	0	504	0	0	483	39	6	
4	0	0	0	0	505	0	0	496	39	6	
5	0	0	0	0	502	0	0	521	39	6	
6	0	0	0	0	508	0	0	527	39	6	
7	0	0	0	0	505	0	0	554	39	6	
8	0	0	0	0	501	0	0	557	39	6	
9	0	0	0	0	502	0	0	561	39	6	
10	0	0	0	0	507	604	0	574	39	6	
11	0	0	0	0	499	1022	0	570	39	6	
12	0	0	0	0	497	1023	0	576	39	6	
13	0	0	0	0	497	1022	0	579	39	6	
14	0	0	0	0	501	1023	0	563	39	6	
15	0	0	0	0	512	1022	0	544	39	6	
0	0	0	0	0	504	1022	0	522	39	6	
1	0	0	0	0	512	182	0	507	39	6	
2	0	0	0	0	511	0	0	500	39	6	
3	0	0	0	0	503	0	0	493	39	6	
4	0	0	0	0	503	0	0	491	39	6	
5	0	0	0	0	501	0	0	486	39	6	
6	0	0	0	0	512	0	0	478	39	6	
7	0	0	0	0	496	0	0	476	39	6	
8	0	0	0	0	507	0	0	474	39	6	
9	0	0	0	0	500	0	0	472	39	6	
10	0	0	0	0	499	196	0	476	39	6	
11	0	0	0	0	499	831	0	480	39	6	
12	0	0	0	0	501	1022	0	483	39	6	
13	0	0	0	0	499	1023	0	491	39	6	
14	0	0	0	0	499	1022	0	483	39	6	
15	0	0	0	0	504	1023	0	481	39	6	
0	0	0	0	0	514	1023	0	477	39	6	
1	0	0	0	0	507	690	0	478	39	6	
2	0	0	0	0	511	0	0	480	39	6	
3	0	0	0	0	499	0	0	486	39	6	
4	0	0	0	0	500	0	0	488	39	6	
5	0	0	0	0	502	0	0	487	39	6	
6	0	0	0	0	508	0	0	486	39	6	
7	0	0	0	0	502	0	0	484	39	6	
8	0	0	0	0	498	0	0	483	39	6	
9	0	0	0	0	507	0	0	486	39	6	
10	0	0	0	0	504	0	0	484	39	6	
11	0	0	0	0	499	383	0	489	39	6	
12	0	0	0	0	497	1020	0	495	39	6	
13	0	0	0	0	497	1022	0	495	39	6	
14	0	0	0	0	499	1023	0	492	39	6	
15	0	0	0	0	498	1023	0	490	39	6	
0	0	0	0	0	513	1022	0	486	39	6	
1	0	0	0	0	508	1022	0	485	39	6	
2	0	0	0	0	506	379	0	488	39	6	
3	0	0	0	0	508	0	0	493	39	6	
4	0	0	0	0	504	0	0	507	39	6	
5	0	0	0	0	499	0	0	502	39	6	
6	0	0	0	0	499	0	0	504	39	6	
7	0	0	0	0	508	0	0	507	39	6	
8	0	0	0	0	504	0	0	506	39	6	
9	0	0	0	0	505	0	0	505	39	6	
10	0	0	0	0	509	0	0	504	39	6	
11	0	0	0	0	499	0	0	503	39	6	
12	0	0	0	0	503	561	0	505	39	6	
13	0	0	0	0	498	1022	0	504	39	6	
14	0	0	0	0	502	1023	0	503	39	6	
15	0	0	0	0	500	1022	0	504	39	6	
0	0	0	0	0	504	1023	0	502	39	6	
1	0	0	0	0	505	1023	0	503	39	6	
2	0	0	0	0	507	1010	0	502	39	6	
3	0	0	0	0	509	154	0	502	39	6	
4	0	0	0	0	503	0	0	504	39	6	
5	0	0	0	0	509	0	0	501	39	6	
6	0	0	0	0	503	0	0	504	39	6	
7	0	0	0	0	496	0	0	503	39	6	
8	0	0	0	0	505	0	0	504	39	6	
9	0	0	0	0	497	0	0	504	39	6	
10	0	0	0	0	504	0	0	504	39	6	
11	0	0	0	0	496	0	0	503	39	6	
12	0	0	0	0	497	232	0	504	39	6	
13	0	0	0	0	507	866	0	501	39	6	
14	0	0	0	0	505	1023	0	502	39	6	
15	0	0	0	0	497	1023	0	503	39	6	
0	0	0	0	0	510	1023	0	504	39	6	
1	0	0	0	0	509	1022	0	504	39	6	
2	0	0	0	0	507	1023	0	504	39	6	
3	0	0	0	0	508	692	0	504	39	6	
4	0	0	0	0	507	0	0	514	39	6	
5	0	0	0	0	500	0	0	536	39	6	
6	0	0	0	0	504	0	0	545	39	6	
7	0	0	0	0	501	0	0	560	39	6	
8	0	0	0	0	501	0	0	572	39	6	
9	0	0	0	0	500	0	0	574	39	6	
10	0	0	0	0	503	0	0	584	39	6	
11	0	0	0	0	517	0	0	578	39	6	
12	0	0	0	0	497	0	0	582	39	6	
13	0	0	0	0	496	439	0	581	39	6	
14	0	0	0	0	495	1022	0	567	39	6	
15	0	0	0	0	501	1023	0	548	39	6	
0	0	0	0	0	501	1023	0	532	39	6	
1	0	0	0	0	508	1023	0	519	39	6	
2	0	0	0	0	505	1022	0	525	39	6	
3	0	0	0	0	508	1022	0	543	39	6	
4	0	0	0	0	507	412	0	549	39	6	
5	0	0	0	0	507	0	0	566	39	6	
6	0	0	0	0	505	0	0	565	39	6	
7	0	0	0	0	501	0	0	568	39	6	
8	0	0	0	0	496	0	0	575	39	6	
9	0	0	0	0	499	0	0	569	39	6	
10	0	0	0	0	502	0	0	577	39	6	
11	0	0	0	0	509	0	0	576	39	6	
12	0	0	0	0	501	0	0	575	39	6	
13	0	0	0	0	497	0	0	578	39	6	
14	0	0	0	0	502	618	0	566	39	6	
15	0	0	0	0	502	1022	0	547	39	6	
0	0	0	0	0	502	1023	0	528	39	6	
1	0	0	0	0	497	1022	0	514	39	6	
2	0	0	0	0	507	1023	0	504	39	6	
3	0	0	0	0	512	1023	0	498	39	6	
4	0	0	0	0	499	951	0	493	39	6	
5	0	0	0	0	503	103	0	490	39	6	
6	0	0	0	0	510	0	0	487	39	6	
7	0	0	0	0	502	0	0	486	39	6	
8	0	0	0	0	502	0	0	485	39	6	
9	0	0	0	0	495	0	0	483	39	6	
10	0	0	0	0	504	0	0	482	39	6	
11	0	0	0	0	514	0	0	482	39	6	
12	0	0	0	0	499	0	0	483	39	6	
13	0	0	0	0	506	0	0	483	39	6	
14	0	0	0	0	496	201	0	485	39	6	
15	0	0	0	0	505	824	0	486	39	6	
0	0	0	0	0	500	1022	0	487	39	6	
1	0	0	0	0	497	1023	0	489	39	6	
2	0	0	0	0	497	1023	0	491	39	6	
3	0	0	0	0	503	1022	0	491	39	6	
4	0	0	0	0	513	1023	0	492	39	6	
5	0	0	0	0	505	621	0	493	39	6	
6	0	0	0	0	506	0	0	496	39	6	
7	0	0	0	0	506	0	0	498	39	6	
8	0	0	0	0	505	0	0	497	39	6	
9	0	0	0	0	505	0	0	496	39	6	
10	0	0	0	0	498	0	0	496	39	6	
11	0	0	0	0	503	0	0	496	39	6	
12	0	0	0	0	500	0	0	496	39	6	
13	0	0	0	0	507	0	0	496	39	6	
14	0	0	0	0	504	0	0	496	39	6	
15	0	0	0	0	496	431	0	497	39	6	
0	0	0	0	0	494	1022	0	496	39	6	
1	0	0	0	0	499	1022	0	498	39	6	
2	0	0	0	0	502	1023	0	498	39	6	
3	0	0	0	0	504	1023	0	497	39	6	
4	0	0	0	0	504	1022	0	497	39	6	
5	0	0	0	0	511	1022	0	495	39	6	
6	0	0	0	0	505	391	0	497	39	6	
7	0	0	0	0	513	0	0	498	39	6	
8	0	0	0	0	512	0	0	513	39	6	
9	0	0	0	0	503	0	0	497	39	6	
10	0	0	0	0	496	0	0	498	39	6	
11	0	0	0	0	503	0	0	500	39	6	
12	0	0	0	0	508	0	0	498	39	6	
13	0	0	0	0	502	0	0	497	39	6	
14	0	0	0	0	497	0	0	499	39	6	
15	0	0	0	0	495	0	0	497	39	6	
0	0	0	0	0	501	629	0	500	39	6	
1	0	0	0	0	503	1022	0	500	39	6	
2	0	0	0	0	499	1023	0	499	39	6	
3	0	0	0	0	499	1022	0	500	39	6	
4	0	0	0	0	504	1023	0	499	39	6	
5	0	0	0	0	510	1023	0	501	39	6	
6	0	0	0	0	515	927	0	499	39	6	
7	0	0	0	0	510	87	0	500	39	6	
8	0	0	0	0	503	0	0	502	39	6	
9	0	0	0	0	501	0	0	502	39	6	
10	0	0	0	0	498	0	0	502	39	6	
11	0	0	0	0	503	0	0	502	39	6	
12	0	0	0	0	506	0	0	502	39	6	
13	0	0	0	0	509	0	0	505	39	6	
14	0	0	0	0	514	0	0	510	39	6	
15	0	0	0	0	506	0	0	536	39	6	
0	0	0	0	0	499	226	0	546	39	6	
1	0	0	0	0	496	844	0	561	39	6	
2	0	0	0	0	492	1022	0	574	39	6	
3	0	0	0	0	506	1023	0	577	39	6	
4	0	0	0	0	504	1023	0	588	39	6	
5	0	0	0	0	510	1023	0	583	39	6	
6	0	0	0	0	503	1023	0	587	39	6	
7	0	0	0	0	507	609	0	588	39	6	
8	0	0	0	0	505	0	0	583	39	6	
9	0	0	0	0	502	0	0	589	39	6	
10	0	0	0	0	507	0	0	583	39	6	
11	0	0	0	0	503	0	0	585	39	6	
12	0	0	0	0	495	0	0	587	39	6	
13	0	0	0	0	504	153	0	581	40	6	
14	0	0	0	0	505	78	0	584	39	6	
15	0	0	0	0	496	0	0	572	36	6	
0	0	0	0	0	497	278	0	573	37	6	
1	0	0	0	0	497	787	0	576	39	6	
2	0	0	0	0	508	1022	0	587	39	6	
3	0	0	0	0	514	1022	0	582	39	6	
4	0	0	0	0	502	1023	0	572	39	6	
5	0	0	0	0	492	1023	0	574	39	6	
6	0	0	0	0	502	1022	0	574	41	6	
7	0	0	0	0	511	1022	0	569	38	6	
8	0	0	0	0	515	358	0	576	37	6	
9	0	0	0	0	499	0	0	567	37	6	
10	0	0	0	0	497	0	0	550	37	6	
11	0	0	0	0	504	0	0	532	38	6	
12	0	0	0	0	511	0	0	517	38	6	
13	0	0	0	0	510	86	0	508	39	6	
14	0	0	0	0	503	67	0	501	40	6	
15	0	0	0	0	503	0	0	497	39	6	
0	0	0	0	0	494	0	0	496	39	6	
1	0	0	0	0	508	189	0	494	39	6	
2	0	0	0	0	516	868	0	494	39	6	
3	0	0	0	0	494	1023	0	494	39	6	
4	0	0	0	0	494	1023	0	492	39	6	
5	0	0	0	0	497	1022	0	492	38	6	
6	0	0	0	0	508	1023	0	492	38	6	
7	0	0	0	0	515	1022	0	494	38	6	
8	0	0	0	0	504	557	0	491	40	6	
9	0	0	0	0	500	0	0	490	39	6	
10	0	0	0	0	502	0	0	490	39	6	
11	0	0	0	0	504	0	0	491	39	6	
12	0	0	0	0	511	0	0	494	39	6	
13	0	0	0	0	501	0	0	495	39	6	
14	0	0	0	0	501	0	0	494	39	6	
15	0	0	0	0	499	52	0	494	38	6	
0	0	0	0	0	504	0	0	495	38	6	
1	0	0	0	0	506	0	0	497	38	6	
2	0	0	0	0	495	479	0	497	39	6	
3	0	0	0	0	501	967	0	495	39	6	
4	0	0	0	0	502	1022	0	494	38	6	
5	0	0	0	0	507	1023	0	495	39	6	
6	0	0	0	0	506	1023	0	495	39	6	
7	0	0	0	0	502	1023	0	494	39	6	
8	0	0	0	0	502	1022	0	495	39	6	
9	0	0	0	0	508	295	0	495	38	6	
10	0	0	0	0	504	0	0	495	39	6	
11	0	0	0	0	513	0	0	496	39	6	
12	0	0	0	0	499	0	0	495	39	6	
13	0	0	0	0	495	0	0	501	39	6	
14	0	0	0	0	499	0	0	491	39	6	
15	0	0	0	0	500	0	0	489	39	6	
0	0	0	0	0	504	0	0	490	39	6	
1	0	0	0	0	501	0	0	488	39	6	
2	0	0	0	0	504	160	0	487	39	6	
3	0	0	0	0	506	724	0	487	38	6	
4	0	0	0	0	496	1022	0	485	38	6	
5	0	0	0	0	507	1023	0	485	39	6	
6	0	0	0	0	503	1023	0	486	39	6	
7	0	0	0	0	500	1023	0	483	39	6	
8	0	0	0	0	500	1022	0	485	39	6	
9	0	0	0	0	509	804	0	486	39	6	
10	0	0	0	0	510	21	0	486	39	6	
11	0	0	0	0	503	0	0	486	39	6	
12	0	0	0	0	500	0	0	485	38	6	
13	0	0	0	0	508	0	0	487	38	6	
14	0	0	0	0	503	0	0	500	38	6	
15	0	0	0	0	504	0	0	492	38	6	
0	0	0	0	0	499	0	0	518	39	6	
1	0	0	0	0	498	0	0	531	38	6	
2	0	0	0	0	500	0	0	544	38	6	
3	0	0	0	0	496	0	0	561	38	6	
4	0	0	0	0	504	526	0	562	38	6	
5	0	0	0	0	493	1022	0	572	38	6	
6	0	0	0	0	498	1023	0	574	38	6	
7	0	0	0	0	511	1023	0	575	38	6	
8	0	0	0	0	506	1023	0	580	38	6	
9	0	0	0	0	515	1022	0	572	39	6	
10	0	0	0	0	507	742	0	578	39	6	
11	0	0	0	0	503	0	0	591	39	6	
12	0	0	0	0	512	0	0	577	39	6	
13	0	0	0	0	507	0	0	557	39	6	
14	0	0	0	0	495	0	0	537	39	6	
15	0	0	0	0	497	0	0	518	39	6	
0	0	0	0	0	497	0	0	507	38	6	
1	0	0	0	0	503	0	0	515	38	6	
2	0	0	0	0	502	0	0	541	39	6	
3	0	0	0	0	501	0	0	571	39	6	
4	0	0	0	0	498	122	0	550	39	6	
5	0	0	0	0	505	770	0	558	39	6	
6	0	0	0	0	503	1023	0	578	39	6	
7	0	0	0	0	499	1023	0	577	39	6	
8	0	0	0	0	497	1023	0	567	39	6	
9	0	0	0	0	511	1023	0	574	39	6	
10	0	0	0	0	512	1023	0	588	39	6	
11	0	0	0	0	506	537	0	579	39	6	
12	0	0	0	0	510	0	0	569	39	6	
13	0	0	0	0	502	0	0	579	39	6	
14	0	0	0	0	500	0	0	589	39	6	
15	0	0	0	0	503	0	0	572	39	6	
0	0	0	0	0	502	0	0	551	39	6	
1	0	0	0	0	506	0	0	531	39	6	
2	0	0	0	0	501	0	0	516	39	6	
3	0	0	0	0	498	0	0	505	39	6	
4	0	0	0	0	502	0	0	497	39	6	
5	0	0	0	0	500	315	0	494	39	6	
6	0	0	0	0	503	963	0	490	39	6	
7	0	0	0	0	502	1023	0	489	39	6	
8	0	0	0	0	500	1023	0	491	39	6	
9	0	0	0	0	509	1023	0	489	39	6	
10	0	0	0	0	512	1022	0	488	39	6	
11	0	0	0	0	509	1022	0	488	39	6	
12	0	0	0	0	504	374	0	487	39	6	
13	0	0	0	0	505	0	0	488	39	6	
14	0	0	0	0	507	0	0	488	39	6	
15	0	0	0	0	498	0	0	488	39	6	
0	0	0	0	0	496	0	0	487	39	6	
1	0	0	0	0	499	0	0	487	39	6	
2	0	0	0	0	503	0	0	487	39	6	
3	0	0	0	0	503	0	0	485	39	6	
4	0	0	0	0	502	0	0	485	39	6	
5	0	0	0	0	503	0	0	484	39	6	
6	0	0	0	0	501	629	0	486	39	6	
7	0	0	0	0	499	1022	0	485	39	6	
8	0	0	0	0	502	1023	0	486	39	6	
9	0	0	0	0	501	1022	0	485	39	6	
10	0	0	0	0	508	1023	0	486	39	6	
11	0	0	0	0	509	1023	0	487	39	6	
12	0	0	0	0	509	944	0	486	39	6	
13	0	0	0	0	513	117	0	496	38	6	
14	0	0	0	0	504	0	0	486	38	6	
15	0	0	0	0	507	0	0	486	39	6	
0	0	0	0	0	501	0	0	487	38	6	
1	0	0	0	0	491	0	0	486	38	6	
2	0	0	0	0	505	0	0	484	38	6	
3	0	0	0	0	510	0	0	486	39	6	
4	0	0	0	0	499	0	0	485	39	6	
5	0	0	0	0	496	0	0	486	38	6	
6	0	0	0	0	503	205	0	488	38	6	
7	0	0	0	0	502	825	0	489	38	6	
8	0	0	0	0	502	1022	0	494	38	6	
9	0	0	0	0	504	1023	0	494	38	6	
10	0	0	0	0	506	1023	0	495	38	6	
11	0	0	0	0	503	1022	0	493	38	6	
12	0	0	0	0	507	1023	0	492	38	6	
13	0	0	0	0	512	565	0	492	38	6	
14	0	0	0	0	512	0	0	494	39	6	
15	0	0	0	0	497	0	0	492	38	6	
0	0	0	0	0	504	0	0	492	38	6	
1	0	0	0	0	505	0	0	491	38	6	
2	0	0	0	0	499	0	0	490	38	6	
3	0	0	0	0	500	0	0	489	39	6	
4	0	0	0	0	500	0	0	489	39	6	
5	0	0	0	0	499	0	0	489	39	6	
6	0	0	0	0	500	0	0	508	39	6	
7	0	0	0	0	505	352	0	540	39	6	
8	0	0	0	0	499	1004	0	550	39	6	
9	0	0	0	0	493	1022	0	547	39	6	
10	0	0	0	0	505	1023	0	559	39	6	
11	0	0	0	0	499	1022	0	575	39	6	
12	0	0	0	0	518	1022	0	566	39	6	
13	0	0	0	0	512	1022	0	557	39	6	
14	0	0	0	0	504	273	0	563	39	6	
15	0	0	0	0	516	0	0	561	39	6	
0	0	0	0	0	499	0	0	564	39	6	
1	0	0	0	0	499	0	0	567	39	6	
2	0	0	0	0	503	0	0	562	39	6	
3	0	0	0	0	494	0	0	568	39	6	
4	0	0	0	0	501	0	0	560	39	6	
5	0	0	0	0	510	0	0	562	39	6	
6	0	0	0	0	502	0	0	561	39	6	
7	0	0	0	0	503	0	0	558	39	6	
8	0	0	0	0	498	575	0	566	39	6	
9	0	0	0	0	497	1022	0	558	39	6	
10	0	0	0	0	496	1023	0	574	39	6	
11	0	0	0	0	502	1022	0	562	39	6	
12	0	0	0	0	510	1023	0	559	39	6	
13	0	0	0	0	512	1023	0	570	39	6	
14	0	0	0	0	503	888	0	579	39	6	
15	0	0	0	0	503	75	0	578	39	6	
0	0	0	0	0	504	0	0	557	39	6	
1	0	0	0	0	505	0	0	567	39	6	
2	0	0	0	0	498	0	0	568	39	6	
3	0	0	0	0	498	0	0	550	39	6	
4	0	0	0	0	504	0	0	529	39	6	
5	0	0	0	0	504	0	0	513	39	6	
6	0	0	0	0	501	0	0	498	39	6	
7	0	0	0	0	504	0	0	490	39	6	
8	0	0	0	0	507	281	0	483	39	6	
9	0	0	0	0	508	913	0	478	39	6	
10	0	0	0	0	498	1022	0	476	39	6	
11	0	0	0	0	495	1023	0	474	39	6	
12	0	0	0	0	495	1023	0	475	39	6	
13	0	0	0	0	504	1023	0	476	39	6	
14	0	0	0	0	515	1023	0	476	39	6	
15	0	0	0	0	511	694	0	476	39	6	
0	0	0	0	0	509	0	0	477	39	6	
1	0	0	0	0	509	0	0	478	39	6	
2	0	0	0	0	502	0	0	478	39	6	
3	0	0	0	0	497	0	0	480	39	6	
4	0	0	0	0	492	0	0	480	39	6	
5	0	0	0	0	498	0	0	481	39	6	
6	0	0	0	0	502	0	0	481	39	6	
7	0	0	0	0	503	0	0	483	39	6	
8	0	0	0	0	506	0	0	483	39	6	
9	0	0	0	0	497	472	0	483	39	6	
10	0	0	0	0	505	1022	0	483	39	6	
11	0	0	0	0	504	1022	0	484	39	6	
12	0	0	0	0	507	1023	0	486	39	6	
13	0	0	0	0	505	1023	0	485	39	6	
14	0	0	0	0	512	1022	0	484	39	6	
15	0	0	0	0	507	1022	0	486	39	6	
0	0	0	0	0	502	395	0	484	39	6	
1	0	0	0	0	506	0	0	483	38	6	
2	0	0	0	0	504	0	0	481	39	6	
3	0	0	0	0	502	0	0	480	39	6	
4	0	0	0	0	502	0	0	480	39	6	
5	0	0	0	0	494	0	0	480	39	6	
6	0	0	0	0	499	0	0	477	39	6	
7	0	0	0	0	508	0	0	476	39	6	
8	0	0	0	0	505	0	0	476	38	6	
9	0	0	0	0	500	0	0	476	39	6	
10	0	0	0	0	492	608	0	476	39	6	
11	0	0	0	0	497	1023	0	478	39	6	
12	0	0	0	0	493	1023	0	476	39	6	
13	0	0	0	0	502	1022	0	477	39	6	
14	0	0	0	0	510	1022	0	478	39	6	
15	0	0	0	0	511	1023	0	478	39	6	
0	0	0	0	0	516	856	0	479	39	6	
1	0	0	0	0	508	36	0	477	39	6	
2	0	0	0	0	501	0	0	479	39	6	
3	0	0	0	0	503	0	0	478	39	6	
4	0	0	0	0	498	0	0	480	39	6	
5	0	0	0	0	496	0	0	485	39	6	
6	0	0	0	0	500	0	0	480	39	6	
7	0	0	0	0	503	0	0	481	39	6	
8	0	0	0	0	507	0	0	483	39	6	
9	0	0	0	0	504	0	0	484	39	6	
10	0	0	0	0	498	232	0	483	39	6	
11	0	0	0	0	505	833	0	484	39	6	
12	0	0	0	0	502	1022	0	483	39	6	
13	0	0	0	0	502	1022	0	483	39	6	
14	0	0	0	0	497	1022	0	489	39	6	
15	0	0	0	0	508	1023	0	515	39	6	
0	0	0	0	0	511	1022	0	551	39	6	
1	0	0	0	0	507	708	0	547	39	6	
2	0	0	0	0	509	0	0	545	39	6	
3	0	0	0	0	508	0	0	559	39	6	
4	0	0	0	0	509	0	0	571	39	6	
5	0	0	0	0	505	0	0	559	39	6	
6	0	0	0	0	500	0	0	554	39	6	
7	0	0	0	0	500	0	0	567	39	6	
8	0	0	0	0	500	0	0	571	39	6	
9	0	0	0	0	503	0	0	557	39	6	
10	0	0	0	0	501	0	0	558	39	6	
11	0	0	0	0	503	507	0	572	39	6	
12	0	0	0	0	504	1022	0	568	39	6	
13	0	0	0	0	499	1022	0	555	39	6	
14	0	0	0	0	494	1023	0	561	39	6	
15	0	0	0	0	503	1022	0	576	39	6	
0	0	0	0	0	509	1022	0	567	39	6	
1	0	0	0	0	509	1022	0	559	39	6	
2	0	0	0	0	515	514	0	568	39	6	
3	0	0	0	0	499	0	0	578	38	6	
4	0	0	0	0	506	0	0	564	39	6	
5	0	0	0	0	504	0	0	559	39	6	
6	0	0	0	0	495	0	0	571	39	6	
7	0	0	0	0	503	0	0	572	39	6	
8	0	0	0	0	504	0	0	555	39	6	
9	0	0	0	0	504	0	0	535	39	6	
10	0	0	0	0	502	0	0	516	39	6	
11	0	0	0	0	499	113	0	504	39	6	
12	0	0	0	0	503	688	0	506	39	6	
13	0	0	0	0	504	1022	0	489	39	6	
14	0	0	0	0	496	1023	0	486	39	6	
15	0	0	0	0	499	1022	0	482	39	6	
0	0	0	0	0	504	1022	0	481	39	6	
1	0	0	0	0	507	1023	0	482	39	6	
2	0	0	0	0	509	949	0	482	39	6	
3	0	0	0	0	513	186	0	482	38	6	
4	0	0	0	0	508	0	0	482	39	6	
5	0	0	0	0	503	0	0	483	39	6	
6	0	0	0	0	507	0	0	483	39	6	
7	0	0	0	0	497	0	0	484	39	6	
8	0	0	0	0	501	0	0	485	39	6	
9	0	0	0	0	500	0	0	486	39	6	
10	0	0	0	0	509	0	0	487	39	6	
11	0	0	0	0	498	0	0	486	38	6	
12	0	0	0	0	494	310	0	486	39	6	
13	0	0	0	0	503	932	0	487	39	6	
14	0	0	0	0	504	1022	0	488	39	6	
15	0	0	0	0	497	1022	0	493	39	6	
0	0	0	0	0	502	1023	0	492	39	6	
1	0	0	0	0	507	1023	0	492	39	6	
2	0	0	0	0	516	1022	0	492	39	6	
3	0	0	0	0	510	639	0	492	38	6	
4	0	0	0	0	496	0	0	494	39	6	
5	0	0	0	0	507	0	0	494	39	6	
6	0	0	0	0	503	0	0	492	39	6	
7	0	0	0	0	503	0	0	491	39	6	
8	0	0	0	0	499	0	0	491	39	6	
9	0	0	0	0	499	0	0	489	39	6	
10	0	0	0	0	504	0	0	488	39	6	
11	0	0	0	0	503	0	0	488	39	6	
12	0	0	0	0	498	0	0	487	39	6	
13	0	0	0	0	504	508	0	489	39	6	
14	0	0	0	0	502	1022	0	505	39	6	
15	0	0	0	0	500	1023	0	488	39	6	
0	0	0	0	0	505	1022	0	487	39	6	
1	0	0	0	0	506	1023	0	487	39	6	
2	0	0	0	0	504	1022	0	488	39	6	
3	0	0	0	0	511	1022	0	488	39	6	
4	0	0	0	0	504	366	0	491	39	6	
5	0	0	0	0	508	0	0	489	39	6	
6	0	0	0	0	503	0	0	487	39	6	
7	0	0	0	0	505	0	0	489	39	6	
8	0	0	0	0	497	0	0	489	39	6	
9	0	0	0	0	495	0	0	491	39	6	
10	0	0	0	0	501	0	0	489	39	6	
11	0	0	0	0	507	0	0	491	39	6	
12	0	0	0	0	502	0	0	493	39	6	
13	0	0	0	0	502	141	0	492	39	6	
14	0	0	0	0	504	726	0	494	39	6	
15	0	0	0	0	500	1022	0	493	39	6	
0	0	0	0	0	507	1023	0	492	39	6	
1	0	0	0	0	505	1023	0	492	39	6	
2	0	0	0	0	506	1022	0	492	39	6	
3	0	0	0	0	507	1022	0	494	39	6	
4	0	0	0	0	509	818	0	491	39	6	
5	0	0	0	0	505	19	0	492	39	6	
6	0	0	0	0	505	0	0	491	39	6	
7	0	0	0	0	502	0	0	488	39	6	
8	0	0	0	0	504	0	0	489	39	6	
9	0	0	0	0	494	0	0	487	39	6	
10	0	0	0	0	508	0	0	483	39	6	
11	0	0	0	0	501	0	0	482	38	6	
12	0	0	0	0	502	0	0	481	39	6	
13	0	0	0	0	499	0	0	483	39	6	
14	0	0	0	0	499	275	0	484	39	6	
15	0	0	0	0	502	887	0	483	39	6	
0	0	0	0	0	501	1022	0	482	39	6	
1	0	0	0	0	496	1022	0	482	39	6	
2	0	0	0	0	498	1022	0	484	39	6	
3	0	0	0	0	506	1023	0	484	38	6	
4	0	0	0	0	514	1023	0	485	39	6	
5	0	0	0	0	502	526	0	486	39	6	
6	0	0	0	0	507	0	0	486	39	6	
7	0	0	0	0	504	0	0	488	39	6	
8	0	0	0	0	505	0	0	488	39	6	
9	0	0	0	0	506	0	0	489	39	6	
10	0	0	0	0	499	0	0	488	39	6	
11	0	0	0	0	501	0	0	490	39	6	
12	0	0	0	0	507	0	0	492	39	6	
13	0	0	0	0	502	0	0	492	39	6	
14	0	0	0	0	496	0	0	511	39	6	
15	0	0	0	0	507	447	0	543	39	6	
0	0	0	0	0	502	1022	0	551	39	6	
1	0	0	0	0	504	1022	0	545	39	6	
2	0	0	0	0	500	1023	0	531	39	6	
3	0	0	0	0	500	1023	0	518	39	6	
4	0	0	0	0	514	1022	0	512	39	6	
5	0	0	0	0	503	1022	0	499	39	6	
6	0	0	0	0	508	427	0	497	39	6	
7	0	0	0	0	498	0	0	494	39	6	
8	0	0	0	0	512	0	0	491	39	6	
9	0	0	0	0	503	0	0	498	39	6	
10	0	0	0	0	499	0	0	490	39	6	
11	0	0	0	0	499	0	0	492	39	6	
12	0	0	0	0	504	0	0	492	39	6	
13	0	0	0	0	508	0	0	492	39	6	
14	0	0	0	0	507	0	0	492	39	6	
15	0	0	0	0	499	163	0	490	39	6	
0	0	0	0	0	503	735	0	492	39	6	
1	0	0	0	0	501	1022	0	492	39	6	
2	0	0	0	0	499	1023	0	491	39	6	
3	0	0	0	0	499	1022	0	493	38	6	
4	0	0	0	0	507	1023	0	494	39	6	
5	0	0	0	0	511	1023	0	497	39	6	
6	0	0	0	0	506	896	0	497	39	6	
7	0	0	0	0	509	105	0	498	39	6	
8	0	0	0	0	510	0	0	498	39	6	
9	0	0	0	0	495	0	0	499	39	6	
10	0	0	0	0	503	0	0	498	39	6	
11	0	0	0	0	500	0	0	499	39	6	
12	0	0	0	0	503	0	0	498	39	6	
13	0	0	0	0	503	0	0	498	39	6	
14	0	0	0	0	511	0	0	497	39	6	
15	0	0	0	0	499	0	0	497	39	6	
0	0	0	0	0	498	309	0	496	39	6	
1	0	0	0	0	506	916	0	495	39	6	
2	0	0	0	0	504	1022	0	492	39	6	
3	0	0	0	0	507	1022	0	489	39	6	
4	0	0	0	0	501	1023	0	491	39	6	
5	0	0	0	0	508	1023	0	488	39	6	
6	0	0	0	0	509	1023	0	488	39	6	
7	0	0	0	0	509	564	0	489	39	6	
8	0	0	0	0	501	0	0	489	39	6	
9	0	0	0	0	508	0	0	493	39	6	
10	0	0	0	0	497	0	0	491	39	6	
11	0	0	0	0	499	0	0	491	39	6	
12	0	0	0	0	493	0	0	492	39	6	
13	0	0	0	0	500	0	0	492	39	6	
14	0	0	0	0	505	0	0	504	39	6	
15	0	0	0	0	503	0	0	494	39	6	
0	0	0	0	0	504	0	0	494	39	6	
1	0	0	0	0	501	469	0	493	39	6	
2	0	0	0	0	497	1022	0	494	39	6	
3	0	0	0	0	504	1023	0	495	39	6	
4	0	0	0	0	504	1023	0	495	39	6	
5	0	0	0	0	504	1023	0	494	39	6	
6	0	0	0	0	510	1023	0	494	39	6	
7	0	0	0	0	505	1022	0	503	39	6	
8	0	0	0	0	508	326	0	531	39	6	
9	0	0	0	0	506	0	0	556	39	6	
10	0	0	0	0	509	0	0	552	39	6	
11	0	0	0	0	508	0	0	552	38	6	
12	0	0	0	0	497	0	0	546	39	6	
13	0	0	0	0	499	0	0	535	39	6	
14	0	0	0	0	499	0	0	521	39	6	
15	0	0	0	0	508	0	0	509	39	6	
0	0	0	0	0	505	0	0	515	39	6	
1	0	0	0	0	496	131	0	517	39	6	
2	0	0	0	0	499	706	0	513	39	6	
3	0	0	0	0	500	1023	0	509	38	6	
4	0	0	0	0	505	1023	0	515	39	6	
5	0	0	0	0	504	1022	0	500	39	6	
6	0	0	0	0	499	1022	0	498	39	6	
7	0	0	0	0	508	1023	0	497	39	6	
8	0	0	0	0	511	824	0	493	39	6	
9	0	0	0	0	513	63	0	493	39	6	
10	0	0	0	0	508	0	0	493	39	6	
11	0	0	0	0	504	0	0	490	39	6	
12	0	0	0	0	499	0	0	494	39	6	
13	0	0	0	0	499	0	0	492	39	6	
14	0	0	0	0	504	0	0	492	39	6	
15	0	0	0	0	503	0	0	492	39	6	
0	0	0	0	0	504	0	0	492	39	6	
1	0	0	0	0	500	0	0	490	39	6	
2	0	0	0	0	495	319	0	491	39	6	
3	0	0	0	0	498	944	0	490	39	6	
4	0	0	0	0	500	1022	0	491	39	6	
5	0	0	0	0	499	1022	0	491	39	6	
6	0	0	0	0	502	1023	0	493	39	6	
7	0	0	0	0	507	1023	0	492	39	6	
8	0	0	0	0	512	1023	0	494	39	6	
9	0	0	0	0	503	560	0	494	39	6	
10	0	0	0	0	506	0	0	494	39	6	
11	0	0	0	0	503	0	0	496	39	6	
12	0	0	0	0	503	0	0	495	39	6	
13	0	0	0	0	500	0	0	494	39	6	
14	0	0	0	0	506	0	0	494	39	6	
15	0	0	0	0	503	0	0	496	39	6	
0	0	0	0	0	497	0	0	500	39	6	
1	0	0	0	0	501	0	0	494	39	6	
2	0	0	0	0	502	0	0	496	39	6	
3	0	0	0	0	501	501	0	499	39	6	
4	0	0	0	0	503	1022	0	499	39	6	
5	0	0	0	0	503	1023	0	500	39	6	
6	0	0	0	0	503	1023	0	500	39	6	
7	0	0	0	0	497	1023	0	497	39	6	
8	0	0	0	0	514	1022	0	498	39	6	
9	0	0	0	0	516	1022	0	499	39	6	
10	0	0	0	0	501	317	0	499	39	6	
11	0	0	0	0	501	0	0	498	39	6	
12	0	0	0	0	508	0	0	495	39	6	
13	0	0	0	0	504	0	0	494	39	6	
14	0	0	0	0	499	0	0	492	39	6	
15	0	0	0	0	504	0	0	493	39	6	
0	0	0	0	0	504	0	0	493	39	6	
1	0	0	0	0	509	0	0	494	39	6	
2	0	0	0	0	504	0	0	494	39	6	
3	0	0	0	0	494	130	0	493	39	6	
4	0	0	0	0	495	696	0	496	39	6	
5	0	0	0	0	499	1022	0	495	39	6	
6	0	0	0	0	504	1023	0	495	39	6	
7	0	0	0	0	504	1022	0	497	39	6	
8	0	0	0	0	507	1022	0	496	39	6	
9	0	0	0	0	510	1022	0	497	39	6	
10	0	0	0	0	506	796	0	497	39	6	
11	0	0	0	0	514	60	0	497	39	6	
12	0	0	0	0	502	0	0	497	39	6	
13	0	0	0	0	504	0	0	495	39	6	
14	0	0	0	0	504	0	0	497	39	6	
15	0	0	0	0	491	0	0	495	39	6	
0	0	0	0	0	499	0	0	494	39	6	
1	0	0	0	0	506	0	0	495	39	6	
2	0	0	0	0	506	0	0	493	39	6	
3	0	0	0	0	502	0	0	494	39	6	
4	0	0	0	0	499	317	0	494	39	6	
5	0	0	0	0	504	915	0	492	39	6	
6	0	0	0	0	498	1022	0	495	39	6	
7	0	0	0	0	493	1023	0	495	39	6	
8	0	0	0	0	501	1022	0	496	39	6	
9	0	0	0	0	512	1023	0	496	39	6	
10	0	0	0	0	512	1023	0	496	39	6	
11	0	0	0	0	512	555	0	497	38	6	
12	0	0	0	0	505	0	0	505	39	6	
13	0	0	0	0	500	0	0	524	39	6	
14	0	0	0	0	503	0	0	547	39	6	
15	0	0	0	0	502	0	0	554	39	6	
0	0	0	0	0	494	0	0	562	39	6	
1	0	0	0	0	496	0	0	571	39	6	
2	0	0	0	0	510	0	0	566	39	6	
3	0	0	0	0	504	0	0	575	38	6	
4	0	0	0	0	514	0	0	573	39	6	
5	0	0	0	0	501	485	0	561	39	6	
6	0	0	0	0	501	1022	0	540	39	6	
7	0	0	0	0	507	1023	0	526	39	6	
8	0	0	0	0	503	1023	0	515	39	6	
9	0	0	0	0	502	1022	0	527	39	6	
10	0	0	0	0	511	1022	0	550	39	6	
11	0	0	0	0	513	1022	0	550	39	6	
12	0	0	0	0	509	300	0	568	39	6	
13	0	0	0	0	497	0	0	569	39	6	
14	0	0	0	0	507	0	0	575	39	6	
15	0	0	0	0	504	0	0	588	39	6	
0	0	0	0	0	501	0	0	572	39	6	
1	0	0	0	0	498	0	0	581	39	6	
2	0	0	0	0	499	0	0	590	39	6	
3	0	0	0	0	502	0	0	576	39	6	
4	0	0	0	0	507	0	0	571	39	6	
5	0	0	0	0	503	137	0	582	39	6	
6	0	0	0	0	496	702	0	583	39	6	
7	0	0	0	0	510	1023	0	568	39	6	
8	0	0	0	0	500	1023	0	566	39	6	
9	0	0	0	0	500	1023	0	579	39	6	
10	0	0	0	0	504	1023	0	575	39	6	
11	0	0	0	0	505	1022	0	556	39	6	
12	0	0	0	0	509	800	0	534	39	6	
13	0	0	0	0	514	59	0	516	39	6	
14	0	0	0	0	506	0	0	505	39	6	
15	0	0	0	0	501	0	0	497	39	6	
0	0	0	0	0	501	0	0	503	39	6	
1	0	0	0	0	499	0	0	485	39	6	
2	0	0	0	0	495	0	0	482	39	6	
3	0	0	0	0	503	0	0	481	38	6	
4	0	0	0	0	505	0	0	481	39	6	
5	0	0	0	0	499	0	0	480	39	6	
6	0	0	0	0	496	323	0	481	39	6	
7	0	0	0	0	508	925	0	477	39	6	
8	0	0	0	0	503	1022	0	477	39	6	
9	0	0	0	0	499	1023	0	480	39	6	
10	0	0	0	0	506	1023	0	480	39	6	
11	0	0	0	0	509	1023	0	483	39	6	
12	0	0	0	0	509	1022	0	483	39	6	
13	0	0	0	0	517	577	0	483	39	6	
14	0	0	0	0	512	0	0	485	39	6	
15	0	0	0	0	491	0	0	487	39	6	
0	0	0	0	0	500	0	0	486	39	6	
1	0	0	0	0	493	0	0	486	39	6	
2	0	0	0	0	505	0	0	498	39	6	
3	0	0	0	0	502	0	0	487	39	6	
4	0	0	0	0	515	0	0	487	39	6	
5	0	0	0	0	505	0	0	486	39	6	
6	0	0	0	0	497	0	0	484	39	6	
7	0	0	0	0	497	502	0	487	39	6	
8	0	0	0	0	504	1022	0	486	39	6	
9	0	0	0	0	500	1023	0	485	39	6	
10	0	0	0	0	497	1023	0	487	39	6	
11	0	0	0	0	506	1023	0	487	39	6	
12	0	0	0	0	509	1022	0	486	39	6	
13	0	0	0	0	507	1022	0	487	39	6	
14	0	0	0	0	502	326	0	489	39	6	
15	0	0	0	0	503	0	0	487	39	6	
0	0	0	0	0	503	0	0	486	39	6	
1	0	0	0	0	500	0	0	487	39	6	
2	0	0	0	0	502	0	0	486	39	6	
3	0	0	0	0	500	0	0	493	39	6	
4	0	0	0	0	496	0	0	484	39	6	
5	0	0	0	0	510	0	0	484	39	6	
6	0	0	0	0	508	0	0	485	39	6	
7	0	0	0	0	502	130	0	486	39	6	
8	0	0	0	0	500	705	0	487	39	6	
9	0	0	0	0	500	1022	0	489	39	6	
10	0	0	0	0	505	1023	0	489	39	6	
11	0	0	0	0	503	1022	0	492	38	6	
12	0	0	0	0	511	1022	0	493	39	6	
13	0	0	0	0	505	1023	0	496	39	6	
14	0	0	0	0	504	796	0	496	39	6	
15	0	0	0	0	510	50	0	496	39	6	
0	0	0	0	0	506	0	0	494	39	6	
1	0	0	0	0	497	0	0	503	39	6	
2	0	0	0	0	498	0	0	531	39	6	
3	0	0	0	0	500	0	0	555	39	6	
4	0	0	0	0	502	0	0	552	39	6	
5	0	0	0	0	501	0	0	557	39	6	
6	0	0	0	0	510	0	0	575	39	6	
7	0	0	0	0	503	0	0	581	39	6	
8	0	0	0	0	494	319	0	568	39	6	
9	0	0	0	0	500	937	0	569	39	6	
10	0	0	0	0	502	1023	0	583	39	6	
11	0	0	0	0	502	1023	0	578	39	6	
12	0	0	0	0	504	1022	0	565	39	6	
13	0	0	0	0	510	1022	0	571	39	6	
14	0	0	0	0	509	1023	0	586	39	6	
15	0	0	0	0	503	568	0	575	39	6	
0	0	0	0	0	506	0	0	566	39	6	
1	0	0	0	0	499	0	0	574	39	6	
2	0	0	0	0	499	0	0	585	39	6	
3	0	0	0	0	504	0	0	571	39	6	
4	0	0	0	0	508	0	0	550	39	6	
5	0	0	0	0	500	0	0	531	39	6	
6	0	0	0	0	502	0	0	518	39	6	
7	0	0	0	0	506	0	0	505	39	6	
8	0	0	0	0	502	0	0	516	39	6	
9	0	0	0	0	502	531	0	544	39	6	
10	0	0	0	0	499	1022	0	552	39	6	
11	0	0	0	0	503	1022	0	548	39	6	
12	0	0	0	0	501	1022	0	559	39	6	
13	0	0	0	0	506	1023	0	577	39	6	
14	0	0	0	0	510	1023	0	570	39	6	
15	0	0	0	0	509	1022	0	552	39	6	
0	0	0	0	0	515	326	0	535	39	6	
1	0	0	0	0	506	0	0	519	39	6	
2	0	0	0	0	498	0	0	506	39	6	
3	0	0	0	0	499	0	0	500	38	6	
4	0	0	0	0	506	0	0	496	39	6	
5	0	0	0	0	504	0	0	495	39	6	
6	0	0	0	0	495	0	0	495	39	6	
7	0	0	0	0	506	0	0	489	39	6	
8	0	0	0	0	504	0	0	489	39	6	
9	0	0	0	0	494	128	0	490	39	6	
10	0	0	0	0	500	709	0	492	39	6	
11	0	0	0	0	497	1023	0	492	38	6	
12	0	0	0	0	507	1023	0	492	39	6	
13	0	0	0	0	507	1022	0	490	39	6	
14	0	0	0	0	505	1023	0	489	39	6	
15	0	0	0	0	506	1022	0	491	39	6	
0	0	0	0	0	504	782	0	491	39	6	
1	0	0	0	0	505	32	0	491	39	6	
2	0	0	0	0	511	0	0	492	39	6	
3	0	0	0	0	502	0	0	489	39	6	
4	0	0	0	0	495	0	0	491	39	6	
5	0	0	0	0	507	0	0	490	39	6	
6	0	0	0	0	504	0	0	489	39	6	
7	0	0	0	0	504	0	0	490	39	6	
8	0	0	0	0	502	0	0	490	39	6	
9	0	0	0	0	501	0	0	489	39	6	
10	0	0	0	0	497	366	0	489	39	6	
11	0	0	0	0	504	941	0	488	39	6	
12	0	0	0	0	490	1022	0	488	39	6	
13	0	0	0	0	501	1023	0	488	39	6	
14	0	0	0	0	502	1023	0	489	39	6	
15	0	0	0	0	513	1023	0	488	39	6	
0	0	0	0	0	515	1022	0	487	39	6	
1	0	0	0	0	506	553	0	488	39	6	
2	0	0	0	0	509	0	0	488	39	6	
3	0	0	0	0	503	0	0	490	39	6	
4	0	0	0	0	499	0	0	488	39	6	
5	0	0	0	0	508	0	0	487	39	6	
6	0	0	0	0	499	0	0	488	39	6	
7	0	0	0	0	497	0	0	487	39	6	
8	0	0	0	0	498	0	0	490	39	6	
9	0	0	0	0	505	0	0	488	39	6	
10	0	0	0	0	504	0	0	488	39	6	
11	0	0	0	0	498	531	0	488	38	6	
12	0	0	0	0	503	1022	0	487	39	6	
13	0	0	0	0	499	1023	0	489	39	6	
14	0	0	0	0	499	1023	0	489	39	6	
15	0	0	0	0	504	1023	0	489	39	6	
0	0	0	0	0	513	1022	0	491	39	6	
1	0	0	0	0	513	1022	0	488	39	6	
2	0	0	0	0	508	332	0	488	39	6	
3	0	0	0	0	501	0	0	488	39	6	
4	0	0	0	0	505	0	0	489	39	6	
5	0	0	0	0	500	0	0	488	39	6	
6	0	0	0	0	504	0	0	489	39	6	
7	0	0	0	0	499	0	0	488	39	6	
8	0	0	0	0	504	0	0	487	39	6	
9	0	0	0	0	502	0	0	492	39	6	
10	0	0	0	0	500	0	0	487	39	6	
11	0	0	0	0	498	177	0	486	39	6	
12	0	0	0	0	506	759	0	486	39	6	
13	0	0	0	0	500	1023	0	487	39	6	
14	0	0	0	0	497	1023	0	485	39	6	
15	0	0	0	0	510	1022	0	487	39	6	
0	0	0	0	0	516	1023	0	492	39	6	
1	0	0	0	0	505	1022	0	521	39	6	
2	0	0	0	0	506	801	0	546	39	6	
3	0	0	0	0	504	66	0	543	39	6	
4	0	0	0	0	502	0	0	546	39	6	
5	0	0	0	0	505	0	0	563	39	6	
6	0	0	0	0	508	0	0	567	39	6	
7	0	0	0	0	495	0	0	552	39	6	
8	0	0	0	0	509	0	0	532	39	6	
9	0	0	0	0	504	0	0	515	39	6	
10	0	0	0	0	496	0	0	512	39	6	
11	0	0	0	0	511	0	0	531	38	6	
12	0	0	0	0	503	331	0	551	39	6	
13	0	0	0	0	504	948	0	545	39	6	
14	0	0	0	0	503	1023	0	546	39	6	
15	0	0	0	0	497	1023	0	564	39	6	
0	0	0	0	0	508	1022	0	572	39	6	
1	0	0	0	0	511	1023	0	555	39	6	
2	0	0	0	0	511	1023	0	536	39	6	
3	0	0	0	0	501	572	0	518	38	6	
4	0	0	0	0	502	0	0	504	39	6	
5	0	0	0	0	503	0	0	498	39	6	
6	0	0	0	0	504	0	0	491	39	6	
7	0	0	0	0	503	0	0	485	39	6	
8	0	0	0	0	496	0	0	482	39	6	
9	0	0	0	0	504	0	0	481	39	6	
10	0	0	0	0	495	0	0	483	39	6	
11	0	0	0	0	499	0	0	483	39	6	
12	0	0	0	0	505	0	0	480	39	6	
13	0	0	0	0	502	543	0	478	39	6	
14	0	0	0	0	497	1022	0	478	39	6	
15	0	0	0	0	500	1023	0	480	39	6	
0	0	0	0	0	502	1023	0	483	39	6	
1	0	0	0	0	506	1023	0	481	39	6	
2	0	0	0	0	508	1022	0	482	39	6	
3	0	0	0	0	509	1022	0	483	39	6	
4	0	0	0	0	503	325	0	483	39	6	
5	0	0	0	0	505	0	0	483	39	6	
6	0	0	0	0	512	0	0	483	39	6	
7	0	0	0	0	504	0	0	496	39	6	
8	0	0	0	0	505	0	0	529	39	6	
9	0	0	0	0	501	0	0	547	39	6	
10	0	0	0	0	493	0	0	543	39	6	
11	0	0	0	0	495	0	0	551	38	6	
12	0	0	0	0	499	0	0	568	39	6	
13	0	0	0	0	503	169	0	564	39	6	
14	0	0	0	0	507	751	0	553	39	6	
15	0	0	0	0	498	1023	0	558	39	6	
0	0	0	0	0	499	1022	0	571	39	6	
1	0	0	0	0	506	1022	0	561	39	6	
2	0	0	0	0	513	1023	0	550	39	6	
3	0	0	0	0	505	1022	0	559	38	6	
4	0	0	0	0	507	777	0	569	39	6	
5	0	0	0	0	510	40	0	556	39	6	
6	0	0	0	0	508	0	0	552	39	6	
7	0	0	0	0	504	0	0	563	39	6	
8	0	0	0	0	497	0	0	569	39	6	
9	0	0	0	0	502	0	0	555	39	6	
10	0	0	0	0	503	0	0	556	39	6	
11	0	0	0	0	499	0	0	567	39	6	
12	0	0	0	0	501	0	0	556	39	6	
13	0	0	0	0	500	0	0	566	39	6	
14	0	0	0	0	496	332	0	559	39	6	
15	0	0	0	0	503	957	0	561	39	6	
0	0	0	0	0	499	1023	0	561	39	6	
1	0	0	0	0	498	1022	0	555	39	6	
2	0	0	0	0	504	1022	0	563	39	6	
3	0	0	0	0	506	1022	0	571	39	6	
4	0	0	0	0	516	1023	0	555	39	6	
5	0	0	0	0	512	544	0	548	39	6	
6	0	0	0	0	508	0	0	560	39	6	
7	0	0	0	0	511	0	0	563	39	6	
8	0	0	0	0	497	0	0	547	39	6	
9	0	0	0	0	507	0	0	547	39	6	
10	0	0	0	0	499	0	0	560	39	6	
11	0	0	0	0	505	0	0	554	39	6	
12	0	0	0	0	491	0	0	540	39	6	
13	0	0	0	0	504	0	0	543	39	6	
14	0	0	0	0	501	0	0	557	39	6	
15	0	0	0	0	503	533	0	547	39	6	
0	0	0	0	0	497	1022	0	536	39	6	
1	0	0	0	0	500	1022	0	546	39	6	
2	0	0	0	0	500	1022	0	554	39	6	
3	0	0	0	0	511	1022	0	541	38	6	
4	0	0	0	0	512	1022	0	536	39	6	
5	0	0	0	0	513	1022	0	547	39	6	
6	0	0	0	0	509	326	0	565	39	6	
7	0	0	0	0	504	0	0	536	39	6	
8	0	0	0	0	505	0	0	536	39	6	
9	0	0	0	0	508	0	0	550	39	6	
10	0	0	0	0	503	0	0	546	39	6	
11	0	0	0	0	499	0	0	533	39	6	
12	0	0	0	0	500	0	0	539	39	6	
13	0	0	0	0	506	0	0	552	39	6	
14	0	0	0	0	496	0	0	542	39	6	
15	0	0	0	0	501	182	0	534	39	6	
0	0	0	0	0	499	754	0	544	39	6	
1	0	0	0	0	493	1022	0	555	39	6	
2	0	0	0	0	497	1023	0	542	39	6	
3	0	0	0	0	503	1022	0	537	39	6	
4	0	0	0	0	509	1023	0	549	39	6	
5	0	0	0	0	518	1023	0	551	39	6	
6	0	0	0	0	515	761	0	537	39	6	
7	0	0	0	0	505	33	0	540	39	6	
8	0	0	0	0	501	0	0	550	39	6	
9	0	0	0	0	505	0	0	545	39	6	
10	0	0	0	0	496	0	0	532	39	6	
11	0	0	0	0	492	0	0	537	38	6	
12	0	0	0	0	502	0	0	551	39	6	
13	0	0	0	0	508	0	0	540	39	6	
14	0	0	0	0	505	0	0	531	39	6	
15	0	0	0	0	503	0	0	542	39	6	
0	0	0	0	0	498	318	0	550	39	6	
1	0	0	0	0	494	914	0	537	39	6	
2	0	0	0	0	505	1023	0	550	39	6	
3	0	0	0	0	500	1023	0	547	38	6	
4	0	0	0	0	510	1022	0	550	39	6	
5	0	0	0	0	516	1023	0	535	39	6	
6	0	0	0	0	507	1023	0	536	39	6	
7	0	0	0	0	504	542	0	551	39	6	
8	0	0	0	0	507	0	0	548	39	6	
9	0	0	0	0	500	0	0	534	39	6	
10	0	0	0	0	505	0	0	540	39	6	
11	0	0	0	0	492	0	0	553	39	6	
12	0	0	0	0	500	0	0	542	39	6	
13	0	0	0	0	503	0	0	533	39	6	
14	0	0	0	0	509	0	0	540	39	6	
15	0	0	0	0	501	0	0	550	39	6	
0	0	0	0	0	502	0	0	537	39	5	
1	0	0	0	0	505	521	0	533	39	6	
2	0	0	0	0	501	1022	0	546	39	6	
3	0	0	0	0	504	1023	0	548	39	6	
4	0	0	0	0	500	1023	0	532	39	6	
5	0	0	0	0	507	1023	0	513	39	6	
6	0	0	0	0	517	1022	0	498	39	6	
7	0	0	0	0	511	1022	0	483	39	6	
8	0	0	0	0	505	334	0	480	39	6	
9	0	0	0	0	499	0	0	496	39	6	
10	0	0	0	0	502	0	0	523	39	6	
11	0	0	0	0	508	0	0	524	39	6	
12	0	0	0	0	503	0	0	522	39	6	
13	0	0	0	0	504	0	0	539	39	6	
14	0	0	0	0	500	0	0	552	39	6	
15	0	0	0	0	508	0	0	543	39	6	
0	0	0	0	0	505	0	0	538	39	6	
1	0	0	0	0	497	187	0	551	39	6	
2	0	0	0	0	498	753	0	555	39	6	
3	0	0	0	0	500	1023	0	542	39	6	
4	0	0	0	0	502	1023	0	542	39	6	
5	0	0	0	0	499	1023	0	556	39	6	
6	0	0	0	0	504	1022	0	551	39	6	
7	0	0	0	0	511	1022	0	538	39	6	
8	0	0	0	0	510	771	0	542	39	6	
9	0	0	0	0	512	36	0	555	39	5	
10	0	0	0	0	506	0	0	545	39	6	
11	0	0	0	0	505	0	0	537	39	6	
12	0	0	0	0	494	0	0	546	39	6	
13	0	0	0	0	500	0	0	558	39	6	
14	0	0	0	0	504	0	0	542	39	6	
15	0	0	0	0	493	0	0	540	39	6	
0	0	0	0	0	504	0	0	551	39	6	
1	0	0	0	0	509	0	0	554	39	6	
2	0	0	0	0	505	359	0	539	39	5	
3	0	0	0	0	499	983	0	539	39	6	
4	0	0	0	0	498	1023	0	552	39	6	
5	0	0	0	0	496	1022	0	548	39	6	
6	0	0	0	0	509	1023	0	534	39	6	
7	0	0	0	0	513	1022	0	540	39	6	
8	0	0	0	0	499	1022	0	554	39	6	
9	0	0	0	0	504	521	0	543	39	6	
10	0	0	0	0	504	0	0	533	39	6	
11	0	0	0	0	512	0	0	542	39	6	
12	0	0	0	0	496	0	0	551	39	6	
13	0	0	0	0	502	0	0	538	39	6	
14	0	0	0	0	507	0	0	535	39	6	
15	0	0	0	0	502	0	0	545	39	6	
0	0	0	0	0	510	0	0	547	39	6	
1	0	0	0	0	504	0	0	530	39	6	
2	0	0	0	0	494	0	0	528	39	5	
3	0	0	0	0	504	531	0	541	39	5	
4	0	0	0	0	497	1022	0	537	39	6	
5	0	0	0	0	498	1022	0	523	39	6	
6	0	0	0	0	504	1022	0	528	39	6	
7	0	0	0	0	502	1023	0	541	39	6	
8	0	0	0	0	517	1022	0	532	39	6	
9	0	0	0	0	512	1022	0	522	39	6	
10	0	0	0	0	500	283	0	531	39	6	
11	0	0	0	0	504	0	0	541	39	6	
12	0	0	0	0	504	0	0	528	39	6	
13	0	0	0	0	503	0	0	524	39	6	
14	0	0	0	0	499	0	0	536	39	6	
15	0	0	0	0	497	0	0	537	39	6	
0	0	0	0	0	499	0	0	523	39	6	
1	0	0	0	0	508	0	0	524	39	6	
2	0	0	0	0	507	0	0	539	39	6	
3	0	0	0	0	504	196	0	536	39	6	
4	0	0	0	0	498	772	0	525	39	6	
5	0	0	0	0	503	1022	0	528	39	6	
6	0	0	0	0	499	1023	0	541	39	6	
7	0	0	0	0	497	1022	0	531	39	6	
8	0	0	0	0	509	1022	0	524	39	6	
9	0	0	0	0	510	1023	0	534	39	6	
10	0	0	0	0	515	738	0	543	39	6	
11	0	0	0	0	515	8	0	530	39	6	
12	0	0	0	0	499	0	0	525	39	6	
13	0	0	0	0	500	0	0	538	39	6	
14	0	0	0	0	504	0	0	541	39	6	
15	0	0	0	0	507	0	0	525	39	6	
0	0	0	0	0	505	0	0	525	39	6	
1	0	0	0	0	506	0	0	539	39	6	
2	0	0	0	0	508	0	0	534	39	6	
3	0	0	0	0	502	0	0	521	39	6	
4	0	0	0	0	497	361	0	527	39	6	
5	0	0	0	0	497	972	0	538	39	6	
6	0	0	0	0	508	1022	0	526	39	6	
7	0	0	0	0	496	1022	0	516	39	6	
8	0	0	0	0	505	1022	0	526	39	6	
9	0	0	0	0	511	1023	0	534	39	6	
10	0	0	0	0	513	1023	0	518	39	6	
11	0	0	0	0	515	524	0	514	39	6	
12	0	0	0	0	500	0	0	527	39	6	
13	0	0	0	0	504	0	0	529	39	6	
14	0	0	0	0	500	0	0	515	39	6	
15	0	0	0	0	499	0	0	514	39	6	
0	0	0	0	0	503	0	0	527	39	6	
1	0	0	0	0	500	0	0	523	39	6	
2	0	0	0	0	505	0	0	510	39	6	
3	0	0	0	0	508	0	0	526	39	6	
4	0	0	0	0	499	0	0	527	39	5	
5	0	0	0	0	499	579	0	514	39	6	
6	0	0	0	0	504	1022	0	505	39	6	
7	0	0	0	0	497	1023	0	515	39	6	
8	0	0	0	0	497	1022	0	525	39	6	
9	0	0	0	0	511	1023	0	512	39	6	
10	0	0	0	0	508	1022	0	510	39	6	
11	0	0	0	0	511	1022	0	520	39	6	
12	0	0	0	0	507	335	0	522	39	6	
13	0	0	0	0	505	0	0	507	39	6	
14	0	0	0	0	504	0	0	488	39	6	
15	0	0	0	0	503	0	0	472	39	6	
0	0	0	0	0	494	0	0	457	39	6	
1	0	0	0	0	492	0	0	460	39	6	
2	0	0	0	0	508	0	0	473	39	6	
3	0	0	0	0	504	0	0	497	39	6	
4	0	0	0	0	501	0	0	497	39	6	
5	0	0	0	0	500	212	0	496	39	6	
6	0	0	0	0	498	770	0	511	39	6	
7	0	0	0	0	500	1022	0	524	39	6	
8	0	0	0	0	499	1023	0	512	39	6	
9	0	0	0	0	507	1022	0	510	39	6	
10	0	0	0	0	510	1022	0	523	39	6	
11	0	0	0	0	510	1023	0	523	39	6	
12	0	0	0	0	515	768	0	508	39	6	
13	0	0	0	0	507	47	0	511	39	6	
14	0	0	0	0	502	0	0	525	39	5	
15	0	0	0	0	501	0	0	521	39	6	
0	0	0	0	0	501	0	0	508	39	6	
1	0	0	0	0	502	0	0	513	39	6	
2	0	0	0	0	496	0	0	526	39	6	
3	0	0	0	0	507	0	0	518	38	6	
4	0	0	0	0	503	0	0	507	39	6	
5	0	0	0	0	499	0	0	518	39	6	
6	0	0	0	0	495	376	0	527	39	6	
7	0	0	0	0	502	978	0	515	39	6	
8	0	0	0	0	502	1022	0	511	39	6	
9	0	0	0	0	499	1022	0	523	39	6	
10	0	0	0	0	501	1022	0	524	39	6	
11	0	0	0	0	510	1023	0	510	38	6	
12	0	0	0	0	513	1022	0	508	39	6	
13	0	0	0	0	503	547	0	521	39	6	
14	0	0	0	0	504	0	0	516	39	5	
15	0	0	0	0	503	0	0	507	39	6	
0	0	0	0	0	501	0	0	511	39	6	
1	0	0	0	0	498	0	0	522	39	6	
2	0	0	0	0	507	0	0	512	39	6	
3	0	0	0	0	504	0	0	503	39	6	
4	0	0	0	0	505	0	0	512	39	6	
5	0	0	0	0	504	0	0	522	39	6	
6	0	0	0	0	509	0	0	511	39	5	
7	0	0	0	0	502	553	0	507	39	5	
8	0	0	0	0	497	1022	0	521	39	6	
9	0	0	0	0	503	1022	0	524	39	6	
10	0	0	0	0	505	1023	0	507	39	6	
11	0	0	0	0	507	1022	0	511	39	6	
12	0	0	0	0	503	1023	0	525	39	6	
13	0	0	0	0	509	1022	0	519	39	6	
14	0	0	0	0	506	313	0	508	39	5	
15	0	0	0	0	501	0	0	516	39	5	
0	0	0	0	0	500	0	0	530	39	6	
1	0	0	0	0	493	0	0	536	39	6	
2	0	0	0	0	495	0	0	510	39	6	
3	0	0	0	0	505	0	0	520	39	6	
4	0	0	0	0	508	0	0	528	39	6	
5	0	0	0	0	504	0	0	515	39	6	
6	0	0	0	0	502	0	0	509	39	5	
7	0	0	0	0	496	212	0	521	39	5	
8	0	0	0	0	488	815	0	524	39	5	
9	0	0	0	0	498	1023	0	508	39	6	
10	0	0	0	0	503	1023	0	510	39	6	
11	0	0	0	0	506	1023	0	526	39	6	
12	0	0	0	0	519	1023	0	520	39	6	
13	0	0	0	0	513	1022	0	509	39	6	
14	0	0	0	0	506	769	0	516	39	5	
15	0	0	0	0	511	14	0	529	39	5	
0	0	0	0	0	506	0	0	519	39	5	
1	0	0	0	0	497	0	0	510	39	6	
2	0	0	0	0	498	0	0	521	39	6	
3	0	0	0	0	500	0	0	529	39	6	
4	0	0	0	0	500	0	0	516	39	6	
5	0	0	0	0	506	0	0	513	39	6	
6	0	0	0	0	504	0	0	525	39	6	
7	0	0	0	0	499	0	0	527	39	5	
8	0	0	0	0	498	374	0	511	39	5	
9	0	0	0	0	500	989	0	512	39	5	
10	0	0	0	0	500	1023	0	525	39	6	
11	0	0	0	0	503	1022	0	519	38	6	
12	0	0	0	0	504	1022	0	507	39	6	
13	0	0	0	0	504	1022	0	507	39	6	
14	0	0	0	0	516	1022	0	510	39	6	
15	0	0	0	0	504	573	0	494	39	5	
0	0	0	0	0	502	0	0	480	39	5	
1	0	0	0	0	503	0	0	491	39	5	
2	0	0	0	0	505	0	0	504	39	6	
3	0	0	0	0	498	0	0	499	39	6	
4	0	0	0	0	500	0	0	498	39	6	
5	0	0	0	0	504	0	0	507	39	6	
6	0	0	0	0	497	0	0	506	39	6	
7	0	0	0	0	502	0	0	485	39	5	
8	0	0	0	0	504	1	0	484	39	5	
9	0	0	0	0	505	569	0	502	39	5	
10	0	0	0	0	499	1022	0	505	39	6	
11	0	0	0	0	496	1022	0	499	39	6	
12	0	0	0	0	502	1023	0	508	39	6	
13	0	0	0	0	498	1023	0	522	39	6	
14	0	0	0	0	512	1023	0	514	39	6	
15	0	0	0	0	513	1022	0	507	39	6	
0	0	0	0	0	502	311	0	514	39	5	
1	0	0	0	0	508	0	0	518	39	5	
2	0	0	0	0	509	0	0	505	39	5	
3	0	0	0	0	497	0	0	489	39	6	
4	0	0	0	0	502	0	0	472	39	6	
5	0	0	0	0	501	0	0	460	39	6	
6	0	0	0	0	505	0	0	446	39	6	
7	0	0	0	0	502	0	0	461	39	6	
8	0	0	0	0	496	0	0	485	39	5	
9	0	0	0	0	499	202	0	504	39	5	
10	0	0	0	0	496	755	0	525	39	5	
11	0	0	0	0	499	1022	0	524	38	6	
12	0	0	0	0	502	1022	0	528	39	6	
13	0	0	0	0	499	1022	0	530	39	6	
14	0	0	0	0	504	1023	0	513	39	6	
15	0	0	0	0	521	1022	0	494	39	6	
0	0	0	0	0	510	739	0	474	39	5	
1	0	0	0	0	508	3	0	458	39	5	
2	0	0	0	0	508	0	0	465	39	5	
3	0	0	0	0	504	0	0	449	39	5	
4	0	0	0	0	502	0	0	447	39	6	
5	0	0	0	0	494	0	0	444	39	6	
6	0	0	0	0	496	0	0	465	39	6	
7	0	0	0	0	504	0	0	487	39	6	
8	0	0	0	0	510	0	0	489	39	5	
9	0	0	0	0	498	0	0	489	39	5	
10	0	0	0	0	505	377	0	480	39	5	
11	0	0	0	0	504	992	0	471	39	5	
12	0	0	0	0	492	1022	0	465	39	6	
13	0	0	0	0	500	1022	0	460	39	6	
14	0	0	0	0	502	1022	0	459	39	6	
15	0	0	0	0	510	1023	0	452	39	6	
0	0	0	0	0	512	1023	0	447	39	6	
1	0	0	0	0	511	565	0	440	39	5	
2	0	0	0	0	504	0	0	437	39	5	
3	0	0	0	0	505	0	0	443	39	5	
4	0	0	0	0	504	0	0	443	39	6	
5	0	0	0	0	494	0	0	445	39	6	
6	0	0	0	0	502	0	0	446	39	6	
7	0	0	0	0	499	0	0	446	39	6	
8	0	0	0	0	505	0	0	451	39	6	
9	0	0	0	0	511	0	0	449	39	5	
10	0	0	0	0	500	0	0	465	39	5	
11	0	0	0	0	501	568	0	448	39	5	
12	0	0	0	0	494	1022	0	451	39	6	
13	0	0	0	0	497	1023	0	452	39	6	
14	0	0	0	0	501	1023	0	454	39	6	
15	0	0	0	0	510	1023	0	455	39	6	
0	0	0	0	0	514	1022	0	474	39	6	
1	0	0	0	0	509	1022	0	458	39	5	
2	0	0	0	0	503	277	0	462	39	5	
3	0	0	0	0	515	0	0	460	38	5	
4	0	0	0	0	505	0	0	462	39	5	
5	0	0	0	0	499	0	0	460	39	6	
6	0	0	0	0	503	0	0	459	39	6	
7	0	0	0	0	496	0	0	460	39	6	
8	0	0	0	0	506	0	0	456	39	6	
9	0	0	0	0	509	0	0	458	39	6	
10	0	0	0	0	505	0	0	457	39	5	
11	0	0	0	0	499	223	0	458	39	5	
12	0	0	0	0	499	778	0	467	39	5	
13	0	0	0	0	497	1022	0	461	39	6	
14	0	0	0	0	506	1023	0	464	39	6	
15	0	0	0	0	501	1022	0	463	39	6	
0	0	0	0	0	513	1022	0	461	39	6	
1	0	0	0	0	509	1022	0	463	39	6	
2	0	0	0	0	500	649	0	468	39	5	
3	0	0	0	0	502	0	0	461	39	5	
4	0	0	0	0	506	0	0	462	39	5	
5	0	0	0	0	508	0	0	461	39	6	
6	0	0	0	0	505	0	0	463	39	6	
7	0	0	0	0	497	0	0	463	39	6	
8	0	0	0	0	498	0	0	463	39	6	
9	0	0	0	0	508	0	0	461	39	6	
10	0	0	0	0	502	0	0	460	39	6	
11	0	0	0	0	501	0	0	460	39	5	
12	0	0	0	0	505	264	0	461	39	5	
13	0	0	0	0	512	678	0	462	39	6	
14	0	0	0	0	499	1022	0	461	39	6	
15	0	0	0	0	504	1023	0	471	39	6	
0	0	0	0	0	505	1022	0	496	39	6	
1	0	0	0	0	509	1021	0	505	39	6	
2	0	0	0	0	501	287	0	501	39	6	
3	0	0	0	0	504	0	0	514	38	5	
4	0	0	0	0	507	0	0	524	39	5	
5	0	0	0	0	501	0	0	520	39	5	
6	0	0	0	0	497	0	0	510	39	6	
7	0	0	0	0	496	0	0	497	39	6	
8	0	0	0	0	504	0	0	488	39	6	
9	0	0	0	0	506	56	0	480	39	6	
10	0	0	0	0	502	0	0	475	39	6	
11	0	0	0	0	508	0	0	468	39	5	
12	0	0	0	0	503	325	0	485	39	5	
13	0	0	0	0	504	852	0	501	39	5	
14	0	0	0	0	500	1022	0	502	39	6	
15	0	0	0	0	497	1023	0	497	39	6	
0	0	0	0	0	500	1022	0	497	39	6	
1	0	0	0	0	501	1023	0	480	39	6	
2	0	0	0	0	510	1023	0	473	39	6	
3	0	0	0	0	519	1022	0	476	39	6	
4	0	0	0	0	503	388	0	497	39	5	
5	0	0	0	0	505	0	0	503	39	5	
6	0	0	0	0	505	0	0	499	39	6	
7	0	0	0	0	502	0	0	491	39	6	
8	0	0	0	0	496	0	0	481	39	6	
9	0	0	0	0	503	0	0	475	39	6	
10	0	0	0	0	505	0	0	469	39	6	
11	0	0	0	0	504	0	0	464	39	6	
12	0	0	0	0	503	0	0	462	39	5	
13	0	0	0	0	505	304	0	461	39	5	
14	0	0	0	0	501	838	0	463	39	5	
15	0	0	0	0	501	1023	0	461	39	6	
0	0	0	0	0	504	1022	0	460	39	6	
1	0	0	0	0	508	1022	0	460	39	6	
2	0	0	0	0	510	1023	0	459	39	6	
3	0	0	0	0	510	1022	0	463	39	6	
4	0	0	0	0	508	793	0	465	39	5	
5	0	0	0	0	500	42	0	466	39	5	
6	0	0	0	0	499	0	0	464	39	5	
7	0	0	0	0	499	0	0	464	39	6	
8	0	0	0	0	499	0	0	470	39	6	
9	0	0	0	0	502	0	0	494	39	6	
10	0	0	0	0	499	0	0	508	39	6	
11	0	0	0	0	506	0	0	521	39	6	
12	0	0	0	0	500	0	0	534	39	5	
13	0	0	0	0	502	0	0	534	39	5	
14	0	0	0	0	504	418	0	542	39	5	
15	0	0	0	0	503	1008	0	540	39	5	
0	0	0	0	0	500	1022	0	541	39	6	
1	0	0	0	0	497	1022	0	560	39	6	
2	0	0	0	0	500	1022	0	540	39	6	
3	0	0	0	0	514	1023	0	546	38	6	
4	0	0	0	0	518	1023	0	543	39	6	
5	0	0	0	0	507	95	0	544	39	5	
6	0	0	0	0	505	0	0	548	39	5	
7	0	0	0	0	502	0	0	541	39	5	
8	0	0	0	0	499	0	0	548	39	6	
9	0	0	0	0	500	0	0	545	39	6	
10	0	0	0	0	507	0	0	544	39	6	
11	0	0	0	0	504	0	0	548	39	6	
12	0	0	0	0	501	0	0	539	39	6	
13	0	0	0	0	497	0	0	544	39	5	
14	0	0	0	0	500	46	0	554	39	5	
15	0	0	0	0	507	355	0	535	39	5	
0	0	0	0	0	505	658	0	540	39	5	
1	0	0	0	0	511	1022	0	534	39	6	
2	0	0	0	0	508	1023	0	542	39	6	
3	0	0	0	0	507	1023	0	540	39	6	
4	0	0	0	0	500	856	0	541	39	6	
5	0	0	0	0	499	395	0	547	39	5	
6	0	0	0	0	500	112	0	540	39	5	
7	0	0	0	0	505	0	0	547	39	5	
8	0	0	0	0	496	0	0	544	39	5	
9	0	0	0	0	502	0	0	542	39	6	
10	0	0	0	0	510	32	0	548	39	6	
11	0	0	0	0	506	207	0	541	38	6	
12	0	0	0	0	512	215	0	547	39	6	
13	0	0	0	0	504	151	0	545	39	6	
14	0	0	0	0	497	213	0	545	39	5	
15	0	0	0	0	500	515	0	550	39	5	
0	0	0	0	0	499	792	0	543	39	5	
1	0	0	0	0	498	1021	0	547	39	6	
2	0	0	0	0	507	1023	0	542	39	6	
3	0	0	0	0	502	1022	0	537	39	6	
4	0	0	0	0	504	1022	0	541	39	6	
5	0	0	0	0	510	829	0	532	39	6	
6	0	0	0	0	509	425	0	538	39	5	
7	0	0	0	0	500	128	0	539	39	5	
8	0	0	0	0	511	0	0	539	39	5	
9	0	0	0	0	508	0	0	540	39	6	
10	0	0	0	0	497	0	0	532	39	6	
11	0	0	0	0	498	137	0	538	39	6	
12	0	0	0	0	501	272	0	532	39	6	
13	0	0	0	0	509	190	0	530	39	6	
14	0	0	0	0	502	179	0	535	39	5	
15	0	0	0	0	501	352	0	528	39	5	
0	0	0	0	0	506	628	0	536	39	5	
1	0	0	0	0	503	890	0	549	39	5	
2	0	0	0	0	493	1022	0	538	39	6	
3	0	0	0	0	501	1022	0	527	39	6	
4	0	0	0	0	500	1023	0	537	39	6	
5	0	0	0	0	504	1022	0	542	39	6	
6	0	0	0	0	509	692	0	521	39	6	
7	0	0	0	0	508	323	0	512	39	5	
8	0	0	0	0	504	10	0	527	39	5	
9	0	0	0	0	504	0	0	531	39	5	
10	0	0	0	0	503	0	0	520	39	6	
11	0	0	0	0	502	0	0	521	39	6	
12	0	0	0	0	505	163	0	533	39	6	
13	0	0	0	0	496	233	0	524	39	6	
14	0	0	0	0	504	208	0	508	39	6	
15	0	0	0	0	503	263	0	515	39	5	
0	0	0	0	0	504	455	0	532	39	5	
1	0	0	0	0	505	702	0	522	39	5	
2	0	0	0	0	503	954	0	516	39	5	
3	0	0	0	0	503	1022	0	531	38	6	
4	0	0	0	0	506	1023	0	543	39	6	
5	0	0	0	0	502	1023	0	526	39	6	
6	0	0	0	0	508	1022	0	520	39	6	
7	0	0	0	0	508	554	0	533	39	5	
8	0	0	0	0	501	219	0	534	39	5	
9	0	0	0	0	503	0	0	514	39	5	
10	0	0	0	0	499	0	0	519	39	5	
11	0	0	0	0	503	0	0	530	39	6	
12	0	0	0	0	509	60	0	531	39	6	
13	0	0	0	0	503	248	0	521	39	6	
14	0	0	0	0	506	229	0	527	39	6	
15	0	0	0	0	507	195	0	525	39	6	
0	0	0	0	0	500	286	0	526	39	5	
1	0	0	0	0	504	588	0	529	39	5	
2	0	0	0	0	503	826	0	519	39	5	
3	0	0	0	0	507	1022	0	504	39	6	
4	0	0	0	0	503	1022	0	490	39	6	
5	0	0	0	0	509	1022	0	478	39	6	
6	0	0	0	0	504	1023	0	476	39	6	
7	0	0	0	0	502	840	0	497	39	6	
8	0	0	0	0	506	357	0	506	39	5	
9	0	0	0	0	513	31	0	520	39	5	
10	0	0	0	0	504	0	0	526	39	5	
11	0	0	0	0	504	0	0	526	39	6	
12	0	0	0	0	500	0	0	536	39	6	
13	0	0	0	0	503	157	0	531	39	6	
14	0	0	0	0	500	272	0	533	39	6	
15	0	0	0	0	503	199	0	531	39	6	
0	0	0	0	0	507	167	0	541	39	6	
1	0	0	0	0	498	348	0	533	39	5	
2	0	0	0	0	505	719	0	528	39	5	
3	0	0	0	0	502	1022	0	535	39	5	
4	0	0	0	0	495	1022	0	540	39	6	
5	0	0	0	0	502	1023	0	537	39	6	
6	0	0	0	0	498	1023	0	546	39	6	
7	0	0	0	0	509	1023	0	541	39	6	
8	0	0	0	0	519	1022	0	544	39	6	
9	0	0	0	0	505	355	0	539	39	5	
10	0	0	0	0	502	0	0	532	39	5	
11	0	0	0	0	501	0	0	550	38	5	
12	0	0	0	0	498	0	0	535	39	6	
13	0	0	0	0	499	0	0	537	39	6	
14	0	0	0	0	502	0	0	536	39	6	
15	0	0	0	0	500	0	0	530	39	6	
0	0	0	0	0	505	0	0	535	39	6	
1	0	0	0	0	501	0	0	528	39	5	
2	0	0	0	0	501	53	0	531	39	5	
3	0	0	0	0	502	606	0	536	38	5	
4	0	0	0	0	496	1022	0	534	39	6	
5	0	0	0	0	499	1023	0	542	39	6	
6	0	0	0	0	502	1023	0	538	39	6	
7	0	0	0	0	499	1023	0	540	39	6	
8	0	0	0	0	508	1022	0	537	39	6	
9	0	0	0	0	517	1022	0	530	39	6	
10	0	0	0	0	508	293	0	536	39	5	
11	0	0	0	0	507	0	0	530	39	5	
12	0	0	0	0	509	0	0	536	39	6	
13	0	0	0	0	497	0	0	535	39	6	
14	0	0	0	0	500	0	0	531	39	6	
15	0	0	0	0	502	0	0	535	39	6	
0	0	0	0	0	505	0	0	524	39	6	
1	0	0	0	0	501	0	0	526	39	6	
2	0	0	0	0	504	0	0	529	39	5	
3	0	0	0	0	502	287	0	526	39	5	
4	0	0	0	0	492	856	0	536	39	5	
5	0	0	0	0	500	1023	0	529	39	6	
6	0	0	0	0	505	1023	0	532	39	6	
7	0	0	0	0	507	1022	0	533	39	6	
8	0	0	0	0	511	1022	0	524	39	6	
9	0	0	0	0	506	1023	0	532	39	6	
10	0	0	0	0	504	760	0	525	39	5	
11	0	0	0	0	505	1	0	527	39	5	
12	0	0	0	0	503	0	0	528	39	5	
13	0	0	0	0	505	0	0	521	39	6	
14	0	0	0	0	503	0	0	528	39	6	
15	0	0	0	0	502	0	0	518	39	6	
0	0	0	0	0	499	0	0	519	39	6	
1	0	0	0	0	500	0	0	518	39	6	
2	0	0	0	0	502	0	0	512	39	6	
3	0	0	0	0	499	0	0	519	38	5	
4	0	0	0	0	509	447	0	510	39	5	
5	0	0	0	0	503	1019	0	513	39	6	
6	0	0	0	0	500	1022	0	514	39	6	
7	0	0	0	0	498	1022	0	510	39	6	
8	0	0	0	0	502	1023	0	517	39	6	
9	0	0	0	0	508	1023	0	512	39	6	
10	0	0	0	0	508	1023	0	515	39	6	
11	0	0	0	0	505	479	0	516	38	6	
12	0	0	0	0	511	0	0	510	39	5	
13	0	0	0	0	510	0	0	507	39	5	
14	0	0	0	0	502	0	0	501	39	6	
15	0	0	0	0	492	0	0	494	39	6	
0	0	0	0	0	498	0	0	484	39	6	
1	0	0	0	0	503	0	0	469	39	6	
2	0	0	0	0	509	0	0	460	39	6	
3	0	0	0	0	496	0	0	447	38	5	
4	0	0	0	0	499	41	0	443	39	5	
5	0	0	0	0	498	603	0	436	39	5	
6	0	0	0	0	503	1022	0	431	39	5	
7	0	0	0	0	496	1022	0	429	39	6	
8	0	0	0	0	504	1022	0	424	39	6	
9	0	0	0	0	507	1023	0	426	39	6	
10	0	0	0	0	513	1022	0	425	39	6	
11	0	0	0	0	514	1015	0	428	39	5	
12	0	0	0	0	509	225	0	427	39	5	
13	0	0	0	0	503	0	0	430	39	5	
14	0	0	0	0	508	0	0	435	39	5	
15	0	0	0	0	504	0	0	432	39	6	
0	0	0	0	0	500	0	0	429	39	6	
1	0	0	0	0	504	0	0	429	39	6	
2	0	0	0	0	504	0	0	431	39	6	
3	0	0	0	0	503	0	0	435	39	6	
4	0	0	0	0	504	0	0	435	39	5	
5	0	0	0	0	497	260	0	435	39	5	
6	0	0	0	0	500	830	0	442	39	5	
7	0	0	0	0	499	1022	0	461	39	6	
8	0	0	0	0	503	1023	0	472	39	6	
9	0	0	0	0	508	1022	0	480	39	6	
10	0	0	0	0	504	1023	0	494	39	6	
11	0	0	0	0	501	1022	0	499	39	6	
12	0	0	0	0	509	652	0	513	39	5	
13	0	0	0	0	507	0	0	513	39	5	
14	0	0	0	0	497	0	0	500	39	5	
15	0	0	0	0	504	0	0	483	39	6	
0	0	0	0	0	499	0	0	464	39	6	
1	0	0	0	0	498	0	0	449	39	6	
2	0	0	0	0	498	0	0	465	39	6	
3	0	0	0	0	502	0	0	476	39	6	
4	0	0	0	0	511	0	0	486	39	6	
5	0	0	0	0	496	0	0	508	39	5	
6	0	0	0	0	500	339	0	509	39	5	
7	0	0	0	0	505	1008	0	514	39	6	
8	0	0	0	0	498	1022	0	515	39	6	
9	0	0	0	0	496	1023	0	508	39	6	
10	0	0	0	0	497	1023	0	518	39	6	
11	0	0	0	0	515	1023	0	514	39	6	
12	0	0	0	0	519	1023	0	519	39	6	
13	0	0	0	0	507	518	0	519	39	5	
14	0	0	0	0	504	0	0	519	39	5	
15	0	0	0	0	501	0	0	523	39	5	
0	0	0	0	0	500	0	0	517	39	6	
1	0	0	0	0	496	0	0	520	39	6	
2	0	0	0	0	496	0	0	521	39	6	
3	0	0	0	0	509	0	0	515	39	6	
4	0	0	0	0	504	0	0	528	39	6	
5	0	0	0	0	511	0	0	523	39	5	
6	0	0	0	0	495	58	0	523	39	5	
7	0	0	0	0	493	664	0	521	39	5	
8	0	0	0	0	505	1022	0	514	39	6	
9	0	0	0	0	499	1023	0	521	39	6	
10	0	0	0	0	507	1023	0	514	39	6	
11	0	0	0	0	511	1023	0	520	39	6	
12	0	0	0	0	507	1023	0	518	39	6	
13	0	0	0	0	512	1018	0	511	39	6	
14	0	0	0	0	504	231	0	518	39	5	
15	0	0	0	0	507	0	0	508	39	5	
0	0	0	0	0	506	0	0	508	39	6	
1	0	0	0	0	504	0	0	505	39	6	
2	0	0	0	0	501	0	0	501	39	6	
3	0	0	0	0	502	0	0	512	39	6	
4	0	0	0	0	499	0	0	510	39	6	
5	0	0	0	0	513	0	0	516	39	6	
6	0	0	0	0	494	0	0	521	39	5	
7	0	0	0	0	502	247	0	518	39	5	
8	0	0	0	0	492	788	0	527	39	5	
9	0	0	0	0	509	1023	0	519	39	6	
10	0	0	0	0	501	1022	0	523	39	6	
11	0	0	0	0	507	1022	0	521	38	6	
12	0	0	0	0	513	1023	0	516	39	6	
13	0	0	0	0	509	1023	0	524	39	6	
14	0	0	0	0	507	716	0	518	39	5	
15	0	0	0	0	510	0	0	517	39	5	
0	0	0	0	0	501	0	0	514	39	5	
1	0	0	0	0	506	0	0	505	39	6	
2	0	0	0	0	500	0	0	513	39	6	
3	0	0	0	0	494	0	0	510	39	6	
4	0	0	0	0	499	0	0	513	39	6	
5	0	0	0	0	505	0	0	516	39	6	
6	0	0	0	0	500	0	0	512	39	5	
7	0	0	0	0	499	0	0	518	39	5	
8	0	0	0	0	502	318	0	508	39	5	
9	0	0	0	0	502	683	0	512	39	5	
10	0	0	0	0	507	1022	0	515	39	6	
11	0	0	0	0	500	1022	0	511	39	6	
12	0	0	0	0	502	1023	0	504	39	6	
13	0	0	0	0	510	1010	0	488	39	6	
14	0	0	0	0	508	389	0	488	39	6	
15	0	0	0	0	503	0	0	460	39	5	
0	0	0	0	0	501	0	0	450	39	5	
1	0	0	0	0	515	0	0	447	39	5	
2	0	0	0	0	497	0	0	441	39	6	
3	0	0	0	0	502	0	0	439	39	6	
4	0	0	0	0	502	107	0	438	39	6	
5	0	0	0	0	510	207	0	435	39	6	
6	0	0	0	0	506	163	0	436	39	6	
7	0	0	0	0	503	172	0	433	39	5	
8	0	0	0	0	497	476	0	432	39	5	
9	0	0	0	0	504	791	0	431	39	5	
10	0	0	0	0	497	1022	0	431	39	6	
11	0	0	0	0	505	1022	0	435	38	6	
12	0	0	0	0	498	1023	0	436	39	6	
13	0	0	0	0	498	1022	0	455	39	6	
14	0	0	0	0	505	1016	0	473	39	6	
15	0	0	0	0	514	371	0	472	39	5	
0	0	0	0	0	508	8	0	463	39	5	
1	0	0	0	0	503	0	0	453	39	5	
2	0	0	0	0	502	0	0	450	39	5	
3	0	0	0	0	502	0	0	444	38	6	
4	0	0	0	0	498	0	0	443	39	6	
5	0	0	0	0	491	229	0	450	39	6	
6	0	0	0	0	501	194	0	447	39	6	
7	0	0	0	0	508	133	0	446	39	6	
8	0	0	0	0	501	219	0	440	39	5	
9	0	0	0	0	501	663	0	446	39	5	
10	0	0	0	0	499	1001	0	471	39	5	
11	0	0	0	0	507	1023	0	481	38	6	
12	0	0	0	0	510	1023	0	482	39	6	
13	0	0	0	0	504	1022	0	479	39	6	
14	0	0	0	0	506	1023	0	472	39	6	
15	0	0	0	0	504	891	0	463	39	6	
0	0	0	0	0	501	192	0	453	39	5	
1	0	0	0	0	506	0	0	452	39	5	
2	0	0	0	0	505	0	0	448	39	5	
3	0	0	0	0	497	0	0	447	39	5	
4	0	0	0	0	503	0	0	451	39	6	
5	0	0	0	0	502	0	0	453	39	6	
6	0	0	0	0	501	176	0	456	39	6	
7	0	0	0	0	503	99	0	455	39	6	
8	0	0	0	0	508	66	0	466	39	5	
9	0	0	0	0	506	308	0	451	39	5	
10	0	0	0	0	502	764	0	451	39	5	
11	0	0	0	0	499	1022	0	455	39	5	
12	0	0	0	0	492	1022	0	459	39	6	
13	0	0	0	0	500	1023	0	462	39	6	
14	0	0	0	0	504	1022	0	467	39	6	
15	0	0	0	0	508	1023	0	467	39	6	
0	0	0	0	0	512	679	0	464	39	6	
1	0	0	0	0	504	28	0	465	39	5	
2	0	0	0	0	505	0	0	466	39	5	
3	0	0	0	0	502	0	0	472	39	5	
4	0	0	0	0	500	0	0	475	39	6	
5	0	0	0	0	501	0	0	474	39	6	
6	0	0	0	0	501	0	0	477	39	6	
7	0	0	0	0	505	0	0	477	39	6	
8	0	0	0	0	503	0	0	475	39	6	
9	0	0	0	0	502	0	0	473	39	5	
10	0	0	0	0	494	242	0	491	39	5	
11	0	0	0	0	503	769	0	510	39	5	
12	0	0	0	0	507	1022	0	523	39	6	
13	0	0	0	0	493	1023	0	545	39	6	
14	0	0	0	0	504	1023	0	548	39	6	
15	0	0	0	0	498	1023	0	556	39	6	
0	0	0	0	0	517	1022	0	557	39	6	
1	0	0	0	0	513	1022	0	549	39	6	
2	0	0	0	0	503	323	0	558	39	5	
3	0	0	0	0	502	0	0	552	39	5	
4	0	0	0	0	499	0	0	558	39	5	
5	0	0	0	0	505	0	0	569	39	6	
6	0	0	0	0	501	0	0	559	39	6	
7	0	0	0	0	500	0	0	565	39	6	
8	0	0	0	0	502	0	0	557	39	6	
9	0	0	0	0	505	0	0	558	39	6	
10	0	0	0	0	498	0	0	561	39	5	
11	0	0	0	0	494	272	0	559	39	5	
12	0	0	0	0	498	825	0	566	39	5	
13	0	0	0	0	502	1023	0	554	39	6	
14	0	0	0	0	504	1023	0	555	39	6	
15	0	0	0	0	502	1023	0	551	39	6	
0	0	0	0	0	504	1023	0	544	39	6	
1	0	0	0	0	509	1022	0	546	39	6	
2	0	0	0	0	508	708	0	535	39	6	
3	0	0	0	0	512	20	0	537	38	5	
4	0	0	0	0	508	0	0	538	39	5	
5	0	0	0	0	499	0	0	532	39	6	
6	0	0	0	0	500	0	0	541	39	6	
7	0	0	0	0	508	0	0	532	39	6	
8	0	0	0	0	505	0	0	534	39	6	
9	0	0	0	0	498	0	0	530	39	6	
10	0	0	0	0	500	0	0	527	39	6	
11	0	0	0	0	504	0	0	540	39	5	
12	0	0	0	0	503	443	0	540	39	5	
13	0	0	0	0	504	1011	0	545	39	6	
14	0	0	0	0	492	1022	0	546	39	6	
15	0	0	0	0	503	1022	0	542	39	6	
0	0	0	0	0	500	1023	0	549	39	6	
1	0	0	0	0	505	1023	0	544	39	6	
2	0	0	0	0	513	1022	0	548	39	6	
3	0	0	0	0	513	468	0	549	39	6	
4	0	0	0	0	500	0	0	543	39	5	
5	0	0	0	0	503	0	0	551	39	5	
6	0	0	0	0	503	0	0	544	39	6	
7	0	0	0	0	499	0	0	546	39	6	
8	0	0	0	0	503	0	0	543	39	6	
9	0	0	0	0	508	0	0	532	39	6	
10	0	0	0	0	503	0	0	526	39	6	
11	0	0	0	0	500	0	0	522	39	6	
12	0	0	0	0	507	28	0	519	39	5	
13	0	0	0	0	503	597	0	519	39	5	
14	0	0	0	0	498	1022	0	512	39	6	
15	0	0	0	0	500	1022	0	503	39	6	
0	0	0	0	0	506	1023	0	491	39	6	
1	0	0	0	0	508	1022	0	481	39	6	
2	0	0	0	0	511	1022	0	476	39	6	
3	0	0	0	0	509	1020	0	470	39	6	
4	0	0	0	0	505	248	0	469	39	5	
5	0	0	0	0	508	0	0	468	39	5	
6	0	0	0	0	506	0	0	465	39	6	
7	0	0	0	0	503	0	0	466	39	6	
8	0	0	0	0	500	0	0	464	39	6	
9	0	0	0	0	498	0	0	464	39	6	
10	0	0	0	0	498	0	0	463	39	6	
11	0	0	0	0	499	0	0	464	39	6	
12	0	0	0	0	503	0	0	463	39	6	
13	0	0	0	0	502	261	0	465	39	5	
14	0	0	0	0	511	808	0	470	39	6	
15	0	0	0	0	501	1023	0	492	39	6	
0	0	0	0	0	498	1022	0	504	39	6	
1	0	0	0	0	505	1022	0	517	39	6	
2	0	0	0	0	504	1023	0	534	39	6	
3	0	0	0	0	504	1022	0	536	39	6	
4	0	0	0	0	513	687	0	546	39	6	
5	0	0	0	0	507	0	0	548	39	5	
6	0	0	0	0	503	0	0	549	39	5	
7	0	0	0	0	500	0	0	551	39	6	
8	0	0	0	0	506	0	0	542	39	6	
9	0	0	0	0	499	0	0	548	39	6	
10	0	0	0	0	505	0	0	543	39	6	
11	0	0	0	0	504	0	0	542	38	6	
12	0	0	0	0	503	0	0	547	39	6	
13	0	0	0	0	496	0	0	536	39	6	
14	0	0	0	0	500	407	0	516	39	5	
15	0	0	0	0	509	990	0	496	39	6	
0	0	0	0	0	496	1022	0	483	39	6	
1	0	0	0	0	502	1022	0	478	39	6	
2	0	0	0	0	497	1023	0	496	39	6	
3	0	0	0	0	512	1023	0	504	39	6	
4	0	0	0	0	504	1022	0	522	39	6	
5	0	0	0	0	504	472	0	531	39	6	
6	0	0	0	0	510	0	0	532	39	5	
7	0	0	0	0	507	0	0	532	39	6	
8	0	0	0	0	503	0	0	529	39	6	
9	0	0	0	0	499	0	0	527	39	6	
10	0	0	0	0	503	0	0	518	39	6	
11	0	0	0	0	500	0	0	503	39	6	
12	0	0	0	0	504	0	0	495	39	6	
13	0	0	0	0	503	0	0	486	39	6	
14	0	0	0	0	503	59	0	476	39	5	
15	0	0	0	0	501	598	0	473	39	6	
0	0	0	0	0	502	1022	0	464	39	6	
1	0	0	0	0	494	1023	0	463	39	6	
2	0	0	0	0	501	1023	0	462	39	6	
3	0	0	0	0	510	1023	0	463	39	6	
4	0	0	0	0	512	1022	0	461	39	6	
5	0	0	0	0	509	958	0	457	39	6	
6	0	0	0	0	510	243	0	461	39	5	
7	0	0	0	0	511	0	0	460	39	5	
8	0	0	0	0	507	0	0	460	39	6	
9	0	0	0	0	497	0	0	463	39	6	
10	0	0	0	0	500	0	0	457	39	6	
11	0	0	0	0	499	0	0	460	39	6	
12	0	0	0	0	497	0	0	460	39	6	
13	0	0	0	0	505	0	0	461	39	6	
14	0	0	0	0	500	0	0	462	39	6	
15	0	0	0	0	496	235	0	462	39	5	
0	0	0	0	0	497	758	0	464	39	6	
1	0	0	0	0	505	1022	0	486	39	6	
2	0	0	0	0	503	1023	0	504	39	6	
3	0	0	0	0	504	1023	0	519	38	6	
4	0	0	0	0	502	1023	0	538	39	6	
5	0	0	0	0	507	1023	0	540	39	6	
6	0	0	0	0	505	659	0	549	39	6	
7	0	0	0	0	506	0	0	545	39	5	
8	0	0	0	0	510	0	0	543	39	5	
9	0	0	0	0	515	0	0	546	39	6	
10	0	0	0	0	500	0	0	540	39	6	
11	0	0	0	0	497	0	0	548	38	6	
12	0	0	0	0	502	0	0	545	39	6	
13	0	0	0	0	505	0	0	541	39	6	
14	0	0	0	0	506	0	0	539	39	6	
15	0	0	0	0	494	0	0	550	39	5	
0	0	0	0	0	491	383	0	550	39	5	
1	0	0	0	0	506	953	0	556	39	6	
2	0	0	0	0	500	1022	0	558	39	6	
3	0	0	0	0	504	1023	0	553	39	6	
4	0	0	0	0	508	1022	0	545	39	6	
5	0	0	0	0	516	1023	0	540	39	6	
6	0	0	0	0	519	1022	0	536	39	6	
7	0	0	0	0	510	439	0	522	39	5	
8	0	0	0	0	503	0	0	507	39	5	
9	0	0	0	0	506	0	0	496	39	5	
10	0	0	0	0	499	0	0	509	39	6	
11	0	0	0	0	504	0	0	515	39	6	
12	0	0	0	0	503	0	0	520	39	6	
13	0	0	0	0	498	0	0	523	39	6	
14	0	0	0	0	500	0	0	542	39	6	
15	0	0	0	0	501	0	0	544	39	5	
0	0	0	0	0	501	22	0	552	39	5	
1	0	0	0	0	500	570	0	558	39	5	
2	0	0	0	0	500	1022	0	553	39	5	
3	0	0	0	0	498	1022	0	545	38	6	
4	0	0	0	0	508	1023	0	540	39	6	
5	0	0	0	0	510	1023	0	536	39	6	
6	0	0	0	0	515	1022	0	524	39	6	
7	0	0	0	0	505	910	0	510	39	6	
8	0	0	0	0	500	224	0	500	39	5	
9	0	0	0	0	511	0	0	489	39	5	
10	0	0	0	0	507	0	0	479	39	5	
11	0	0	0	0	507	0	0	474	38	6	
12	0	0	0	0	508	0	0	473	39	6	
13	0	0	0	0	496	0	0	475	39	6	
14	0	0	0	0	497	0	0	475	39	6	
15	0	0	0	0	500	0	0	471	39	6	
0	0	0	0	0	502	0	0	469	39	5	
1	0	0	0	0	504	230	0	463	39	5	
2	0	0	0	0	499	792	0	471	39	5	
3	0	0	0	0	509	1023	0	494	38	6	
4	0	0	0	0	504	1023	0	509	39	6	
5	0	0	0	0	499	1023	0	526	39	6	
6	0	0	0	0	508	1023	0	539	39	6	
7	0	0	0	0	512	1022	0	535	39	6	
8	0	0	0	0	505	615	0	543	39	5	
9	0	0	0	0	510	0	0	544	39	5	
10	0	0	0	0	501	0	0	541	39	5	
11	0	0	0	0	504	0	0	541	39	5	
12	0	0	0	0	495	0	0	540	39	6	
13	0	0	0	0	503	0	0	539	39	6	
14	0	0	0	0	505	0	0	536	39	6	
15	0	0	0	0	511	0	0	524	39	6	
0	0	0	0	0	501	0	0	510	39	5	
1	0	0	0	0	499	0	0	500	39	5	
2	0	0	0	0	495	374	0	490	39	5	
3	0	0	0	0	498	957	0	481	39	5	
4	0	0	0	0	503	1022	0	475	39	6	
5	0	0	0	0	511	1023	0	473	39	6	
6	0	0	0	0	504	1022	0	473	39	6	
7	0	0	0	0	511	1023	0	474	39	6	
8	0	0	0	0	508	1022	0	472	39	6	
9	0	0	0	0	510	460	0	470	39	5	
10	0	0	0	0	508	0	0	470	39	5	
11	0	0	0	0	506	0	0	476	39	5	
12	0	0	0	0	499	0	0	502	39	6	
13	0	0	0	0	501	0	0	515	39	6	
14	0	0	0	0	497	0	0	528	39	6	
15	0	0	0	0	495	0	0	539	39	6	
0	0	0	0	0	503	0	0	538	39	6	
1	0	0	0	0	504	0	0	548	39	5	
2	0	0	0	0	504	0	0	547	39	5	
3	0	0	0	0	503	573	0	544	39	5	
4	0	0	0	0	493	1022	0	540	39	5	
5	0	0	0	0	496	1022	0	538	39	6	
6	0	0	0	0	502	1023	0	534	39	6	
7	0	0	0	0	511	1023	0	523	39	6	
8	0	0	0	0	512	1022	0	510	39	6	
9	0	0	0	0	507	952	0	497	39	5	
10	0	0	0	0	504	236	0	489	39	5	
11	0	0	0	0	502	0	0	485	38	5	
12	0	0	0	0	508	0	0	479	39	5	
13	0	0	0	0	501	0	0	480	39	6	
14	0	0	0	0	501	0	0	481	39	6	
15	0	0	0	0	504	0	0	483	39	6	
0	0	0	0	0	508	0	0	481	39	6	
1	0	0	0	0	504	0	0	480	39	5	
2	0	0	0	0	506	0	0	481	39	5	
3	0	0	0	0	500	222	0	486	39	5	
4	0	0	0	0	498	757	0	495	39	5	
5	0	0	0	0	499	1023	0	521	39	6	
6	0	0	0	0	500	1023	0	551	39	6	
7	0	0	0	0	500	1023	0	545	39	6	
8	0	0	0	0	506	1022	0	553	39	6	
9	0	0	0	0	506	1022	0	549	39	6	
10	0	0	0	0	511	655	0	560	39	5	
11	0	0	0	0	507	0	0	563	38	5	
12	0	0	0	0	508	0	0	567	39	5	
13	0	0	0	0	506	0	0	572	39	5	
14	0	0	0	0	503	0	0	566	39	6	
15	0	0	0	0	497	0	0	572	39	6	
0	0	0	0	0	509	0	0	572	39	6	
1	0	0	0	0	502	0	0	566	39	6	
2	0	0	0	0	510	0	0	560	39	5	
3	0	0	0	0	503	0	0	554	39	5	
4	0	0	0	0	504	379	0	548	39	5	
5	0	0	0	0	502	951	0	535	39	5	
6	0	0	0	0	500	1022	0	523	39	6	
7	0	0	0	0	500	1023	0	510	39	6	
8	0	0	0	0	501	1022	0	504	39	6	
9	0	0	0	0	508	1022	0	494	39	6	
10	0	0	0	0	514	1022	0	487	39	5	
11	0	0	0	0	503	459	0	488	39	5	
12	0	0	0	0	502	0	0	483	39	5	
13	0	0	0	0	503	0	0	487	39	5	
14	0	0	0	0	503	0	0	511	39	6	
15	0	0	0	0	502	0	0	518	39	6	
0	0	0	0	0	501	0	0	527	39	6	
1	0	0	0	0	503	0	0	536	39	6	
2	0	0	0	0	496	0	0	529	39	6	
3	0	0	0	0	508	0	0	518	39	5	
4	0	0	0	0	502	27	0	506	39	5	
5	0	0	0	0	498	562	0	498	39	5	
6	0	0	0	0	504	1022	0	491	39	5	
7	0	0	0	0	495	1022	0	486	39	6	
8	0	0	0	0	502	1023	0	477	39	6	
9	0	0	0	0	505	1023	0	472	39	6	
10	0	0	0	0	512	1022	0	472	39	6	
11	0	0	0	0	507	952	0	472	39	5	
12	0	0	0	0	502	251	0	476	39	5	
13	0	0	0	0	509	0	0	475	39	5	
14	0	0	0	0	501	0	0	477	39	5	
15	0	0	0	0	499	0	0	476	39	6	
0	0	0	0	0	495	0	0	469	39	6	
1	0	0	0	0	499	0	0	481	39	6	
2	0	0	0	0	512	0	0	463	39	6	
3	0	0	0	0	502	0	0	464	39	5	
4	0	0	0	0	498	0	0	465	39	5	
5	0	0	0	0	499	236	0	466	39	5	
6	0	0	0	0	503	775	0	470	39	5	
7	0	0	0	0	503	1023	0	477	39	6	
8	0	0	0	0	505	1022	0	462	39	6	
9	0	0	0	0	504	1022	0	473	39	6	
10	0	0	0	0	509	1022	0	496	39	6	
11	0	0	0	0	513	1022	0	508	39	6	
12	0	0	0	0	508	697	0	527	39	5	
13	0	0	0	0	511	11	0	532	39	5	
14	0	0	0	0	509	0	0	536	39	5	
15	0	0	0	0	497	0	0	549	39	5	
0	0	0	0	0	499	0	0	547	39	6	
1	0	0	0	0	495	0	0	554	39	6	
2	0	0	0	0	503	0	0	553	39	6	
3	0	0	0	0	500	0	0	552	39	6	
4	0	0	0	0	505	0	0	556	39	5	
5	0	0	0	0	505	0	0	547	39	5	
6	0	0	0	0	500	402	0	551	39	5	
7	0	0	0	0	502	953	0	548	39	5	
8	0	0	0	0	504	1022	0	546	39	6	
9	0	0	0	0	496	1022	0	562	39	6	
10	0	0	0	0	507	1022	0	537	39	6	
11	0	0	0	0	511	1023	0	519	39	6	
12	0	0	0	0	505	1022	0	503	39	5	
13	0	0	0	0	507	453	0	492	39	5	
14	0	0	0	0	506	0	0	494	39	5	
15	0	0	0	0	504	0	0	512	39	5	
0	0	0	0	0	497	0	0	518	39	6	
1	0	0	0	0	502	0	0	528	39	6	
2	0	0	0	0	500	0	0	534	39	6	
3	0	0	0	0	501	0	0	533	39	6	
4	0	0	0	0	501	0	0	542	39	6	
5	0	0	0	0	508	0	0	537	39	5	
6	0	0	0	0	504	0	0	538	39	5	
7	0	0	0	0	497	545	0	534	39	5	
8	0	0	0	0	502	1022	0	525	39	5	
9	0	0	0	0	504	1022	0	529	39	6	
10	0	0	0	0	505	1023	0	524	39	6	
11	0	0	0	0	503	1022	0	529	39	6	
12	0	0	0	0	506	1022	0	537	39	6	
13	0	0	0	0	502	934	0	528	39	5	
14	0	0	0	0	508	243	0	514	39	5	
15	0	0	0	0	508	0	0	495	39	5	
0	0	0	0	0	504	0	0	480	39	5	
1	0	0	0	0	505	0	0	479	39	6	
2	0	0	0	0	498	0	0	493	39	6	
3	0	0	0	0	505	0	0	497	39	6	
4	0	0	0	0	501	0	0	492	39	6	
5	0	0	0	0	504	0	0	488	39	5	
6	0	0	0	0	503	0	0	477	39	5	
7	0	0	0	0	496	240	0	470	39	5	
8	0	0	0	0	504	783	0	467	39	5	
9	0	0	0	0	504	1023	0	460	39	6	
10	0	0	0	0	508	1023	0	461	39	6	
11	0	0	0	0	498	1022	0	460	38	6	
12	0	0	0	0	511	1023	0	462	39	6	
13	0	0	0	0	508	1023	0	465	39	5	
14	0	0	0	0	504	686	0	468	39	5	
15	0	0	0	0	510	28	0	468	39	5	
0	0	0	0	0	500	0	0	472	39	5	
1	0	0	0	0	508	0	0	465	39	5	
2	0	0	0	0	500	0	0	473	39	6	
3	0	0	0	0	500	0	0	497	39	6	
4	0	0	0	0	500	0	0	513	39	6	
5	0	0	0	0	503	0	0	513	39	6	
6	0	0	0	0	508	0	0	522	39	5	
7	0	0	0	0	498	0	0	499	39	5	
8	0	0	0	0	505	439	0	491	39	5	
9	0	0	0	0	497	1015	0	485	39	5	
10	0	0	0	0	500	1022	0	480	39	6	
11	0	0	0	0	503	1022	0	477	39	5	
12	0	0	0	0	499	1022	0	476	39	6	
13	0	0	0	0	509	1023	0	473	39	6	
14	0	0	0	0	508	1023	0	472	39	5	
15	0	0	0	0	510	441	0	486	39	5	
0	0	0	0	0	504	0	0	508	39	5	
1	0	0	0	0	502	0	0	510	39	5	
2	0	0	0	0	503	0	0	504	39	6	
3	0	0	0	0	504	0	0	493	39	6	
4	0	0	0	0	501	0	0	486	39	6	
5	0	0	0	0	495	0	0	479	39	6	
6	0	0	0	0	508	0	0	473	39	5	
7	0	0	0	0	507	0	0	470	39	5	
8	0	0	0	0	495	53	0	462	39	5	
9	0	0	0	0	498	663	0	473	39	5	
10	0	0	0	0	498	1022	0	497	39	5	
11	0	0	0	0	498	1023	0	507	39	6	
12	0	0	0	0	504	1023	0	504	39	6	
13	0	0	0	0	508	1023	0	518	39	6	
14	0	0	0	0	512	1022	0	524	39	6	
15	0	0	0	0	513	1022	0	516	39	5	
0	0	0	0	0	504	328	0	504	39	5	
1	0	0	0	0	500	0	0	489	39	5	
2	0	0	0	0	515	0	0	478	39	5	
3	0	0	0	0	511	0	0	474	38	6	
4	0	0	0	0	502	0	0	470	39	5	
5	0	0	0	0	499	0	0	471	39	6	
6	0	0	0	0	499	0	0	470	39	5	
7	0	0	0	0	509	0	0	467	39	5	
8	0	0	0	0	502	0	0	478	39	5	
9	0	0	0	0	498	248	0	497	39	5	
10	0	0	0	0	496	743	0	506	39	5	
11	0	0	0	0	504	1022	0	528	38	6	
12	0	0	0	0	501	1023	0	538	39	5	
13	0	0	0	0	505	1023	0	545	39	6	
14	0	0	0	0	508	1022	0	556	39	5	
15	0	0	0	0	508	1022	0	552	39	5	
0	0	0	0	0	508	458	0	560	39	5	
1	0	0	0	0	506	0	0	560	39	5	
2	0	0	0	0	504	0	0	560	39	5	
3	0	0	0	0	496	0	0	566	39	5	
4	0	0	0	0	501	0	0	575	39	6	
5	0	0	0	0	502	0	0	564	39	5	
6	0	0	0	0	510	0	0	557	39	6	
7	0	0	0	0	505	0	0	556	39	5	
8	0	0	0	0	508	0	0	560	39	5	
9	0	0	0	0	504	0	0	552	39	5	
10	0	0	0	0	496	297	0	560	39	5	
11	0	0	0	0	503	862	0	555	39	5	
12	0	0	0	0	497	1022	0	548	39	6	
13	0	0	0	0	503	1023	0	543	39	5	
14	0	0	0	0	504	1023	0	534	39	6	
15	0	0	0	0	508	1023	0	520	39	5	
0	0	0	0	0	502	1022	0	508	39	5	
1	0	0	0	0	498	351	0	497	39	5	
2	0	0	0	0	507	0	0	496	39	5	
3	0	0	0	0	503	0	0	504	38	5	
4	0	0	0	0	502	0	0	526	39	6	
5	0	0	0	0	503	0	0	550	39	5	
6	0	0	0	0	502	0	0	541	39	5	
7	0	0	0	0	499	0	0	551	39	5	
8	0	0	0	0	506	0	0	545	39	5	
9	0	0	0	0	505	0	0	542	39	5	
10	0	0	0	0	503	0	0	541	39	5	
11	0	0	0	0	510	471	0	539	39	5	
12	0	0	0	0	508	1013	0	539	39	5	
13	0	0	0	0	496	1023	0	534	39	6	
14	0	0	0	0	497	1023	0	522	39	5	
15	0	0	0	0	505	1023	0	509	39	6	
0	0	0	0	0	510	1022	0	501	39	5	
1	0	0	0	0	508	875	0	496	39	5	
2	0	0	0	0	505	176	0	490	39	5	
3	0	0	0	0	500	0	0	485	39	5	
4	0	0	0	0	501	0	0	482	39	5	
5	0	0	0	0	500	0	0	482	39	6	
6	0	0	0	0	503	0	0	480	39	5	
7	0	0	0	0	498	0	0	479	39	5	
8	0	0	0	0	504	0	0	475	39	5	
9	0	0	0	0	502	0	0	468	39	5	
10	0	0	0	0	508	0	0	470	39	5	
11	0	0	0	0	503	252	0	469	39	5	
12	0	0	0	0	504	775	0	479	39	5	
13	0	0	0	0	494	1023	0	501	39	6	
14	0	0	0	0	497	1023	0	515	39	5	
15	0	0	0	0	502	1022	0	525	39	5	
0	0	0	0	0	510	1022	0	536	39	5	
1	0	0	0	0	508	1022	0	532	39	5	
2	0	0	0	0	507	657	0	545	39	5	
3	0	0	0	0	507	0	0	547	39	5	
4	0	0	0	0	507	0	0	550	39	5	
5	0	0	0	0	499	0	0	558	39	5	
6	0	0	0	0	502	0	0	553	39	6	
7	0	0	0	0	501	0	0	560	39	5	
8	0	0	0	0	510	0	0	557	39	5	
9	0	0	0	0	502	0	0	548	39	5	
10	0	0	0	0	508	0	0	547	39	5	
11	0	0	0	0	501	0	0	544	39	5	
12	0	0	0	0	495	359	0	542	39	5	
13	0	0	0	0	496	956	0	539	39	5	
14	0	0	0	0	499	1022	0	529	39	6	
15	0	0	0	0	498	1023	0	515	39	5	
0	0	0	0	0	505	1023	0	508	39	5	
1	0	0	0	0	510	1023	0	498	39	5	
2	0	0	0	0	506	1023	0	493	39	5	
3	0	0	0	0	505	529	0	489	39	5	
4	0	0	0	0	503	0	0	484	39	5	
5	0	0	0	0	510	0	0	483	39	5	
6	0	0	0	0	500	0	0	504	39	6	
7	0	0	0	0	500	0	0	514	39	5	
8	0	0	0	0	507	0	0	524	39	5	
9	0	0	0	0	501	0	0	535	39	5	
10	0	0	0	0	502	0	0	535	39	5	
11	0	0	0	0	507	0	0	533	39	5	
12	0	0	0	0	495	156	0	534	39	5	
13	0	0	0	0	495	695	0	534	39	5	
14	0	0	0	0	498	1022	0	528	39	5	
15	0	0	0	0	503	1023	0	520	39	6	
0	0	0	0	0	507	1023	0	509	39	5	
1	0	0	0	0	511	1023	0	496	39	5	
2	0	0	0	0	514	1022	0	490	39	5	
3	0	0	0	0	504	973	0	485	39	5	
4	0	0	0	0	510	234	0	482	39	5	
5	0	0	0	0	504	0	0	479	39	5	
6	0	0	0	0	504	0	0	479	39	5	
7	0	0	0	0	498	0	0	481	39	6	
8	0	0	0	0	496	0	0	476	39	5	
9	0	0	0	0	500	0	0	473	39	5	
10	0	0	0	0	496	0	0	473	39	5	
11	0	0	0	0	505	0	0	472	39	5	
12	0	0	0	0	502	0	0	485	39	5	
13	0	0	0	0	501	47	0	479	39	5	
14	0	0	0	0	502	605	0	486	39	5	
15	0	0	0	0	505	1022	0	509	39	6	
0	0	0	0	0	501	1023	0	521	39	5	
1	0	0	0	0	499	1022	0	534	39	5	
2	0	0	0	0	505	1023	0	553	39	5	
3	0	0	0	0	510	1022	0	550	38	5	
4	0	0	0	0	512	384	0	562	39	5	
5	0	0	0	0	510	0	0	567	39	5	
6	0	0	0	0	501	0	0	569	39	5	
7	0	0	0	0	506	0	0	576	39	5	
8	0	0	0	0	500	0	0	570	39	6	
9	0	0	0	0	499	0	0	576	39	5	
10	0	0	0	0	498	0	0	568	39	5	
11	0	0	0	0	503	0	0	563	39	5	
12	0	0	0	0	504	0	0	566	39	5	
13	0	0	0	0	504	0	0	557	39	5	
14	0	0	0	0	499	230	0	563	39	5	
15	0	0	0	0	505	801	0	555	39	5	
0	0	0	0	0	499	1022	0	546	39	6	
1	0	0	0	0	502	1023	0	542	39	5	
2	0	0	0	0	505	1022	0	540	39	5	
3	0	0	0	0	506	1023	0	536	39	5	
4	0	0	0	0	513	1022	0	526	39	5	
5	0	0	0	0	510	255	0	514	39	5	
6	0	0	0	0	501	0	0	504	39	5	
7	0	0	0	0	499	0	0	502	39	5	
8	0	0	0	0	503	0	0	503	39	6	
9	0	0	0	0	505	0	0	497	39	5	
10	0	0	0	0	499	0	0	494	39	6	
11	0	0	0	0	496	0	0	487	39	5	
12	0	0	0	0	504	0	0	483	39	5	
13	0	0	0	0	504	0	0	479	39	5	
14	0	0	0	0	508	0	0	475	39	5	
15	0	0	0	0	497	561	0	473	39	5	
0	0	0	0	0	501	1022	0	467	39	5	
1	0	0	0	0	503	1023	0	466	39	6	
2	0	0	0	0	503	1023	0	465	39	5	
3	0	0	0	0	505	1023	0	466	39	6	
4	0	0	0	0	512	1022	0	470	39	5	
5	0	0	0	0	507	999	0	473	39	5	
6	0	0	0	0	508	229	0	475	39	5	
7	0	0	0	0	504	0	0	475	39	5	
8	0	0	0	0	501	0	0	472	39	5	
9	0	0	0	0	494	0	0	470	39	6	
10	0	0	0	0	502	0	0	472	39	5	
11	0	0	0	0	503	0	0	478	38	6	
12	0	0	0	0	502	0	0	478	39	5	
13	0	0	0	0	502	0	0	480	39	5	
14	0	0	0	0	500	0	0	482	39	5	
15	0	0	0	0	508	202	0	482	39	5	
0	0	0	0	0	499	744	0	484	39	5	
1	0	0	0	0	496	1023	0	506	39	6	
2	0	0	0	0	506	1023	0	522	39	5	
3	0	0	0	0	501	1022	0	536	38	6	
4	0	0	0	0	512	1023	0	552	39	5	
5	0	0	0	0	508	1022	0	556	39	5	
6	0	0	0	0	505	426	0	568	39	5	
7	0	0	0	0	508	0	0	570	39	5	
8	0	0	0	0	504	0	0	570	39	5	
9	0	0	0	0	499	0	0	573	39	5	
10	0	0	0	0	502	0	0	563	39	6	
11	0	0	0	0	503	0	0	568	38	6	
12	0	0	0	0	504	0	0	563	39	6	
13	0	0	0	0	505	0	0	561	39	5	
14	0	0	0	0	501	0	0	563	39	5	
15	0	0	0	0	507	0	0	553	39	5	
0	0	0	0	0	491	0	0	558	39	5	
1	0	0	0	0	492	566	0	555	39	5	
2	0	0	0	0	499	1022	0	556	39	6	
3	0	0	0	0	495	1022	0	562	38	5	
4	0	0	0	0	508	1022	0	559	39	6	
5	0	0	0	0	508	1023	0	553	39	5	
6	0	0	0	0	513	736	0	557	39	5	
7	0	0	0	0	508	0	0	558	39	5	
8	0	0	0	0	508	0	0	554	39	5	
9	0	0	0	0	503	0	0	547	39	5	
10	0	0	0	0	507	0	0	543	39	6	
11	0	0	0	0	508	0	0	539	39	5	
12	0	0	0	0	496	0	0	527	39	6	
13	0	0	0	0	503	0	0	515	39	5	
14	0	0	0	0	501	0	0	504	39	5	
15	0	0	0	0	499	0	0	495	39	5	
0	0	0	0	0	501	0	0	486	39	5	
1	0	0	0	0	504	192	0	480	39	5	
2	0	0	0	0	497	816	0	486	39	5	
3	0	0	0	0	503	1023	0	476	39	6	
4	0	0	0	0	499	1023	0	476	39	5	
5	0	0	0	0	499	1023	0	476	39	6	
6	0	0	0	0	505	1022	0	477	39	6	
7	0	0	0	0	511	597	0	492	39	5	
8	0	0	0	0	511	0	0	473	39	5	
9	0	0	0	0	512	0	0	471	39	5	
10	0	0	0	0	506	0	0	471	39	5	
11	0	0	0	0	506	0	0	475	38	6	
12	0	0	0	0	495	0	0	476	39	5	
13	0	0	0	0	495	0	0	480	39	6	
14	0	0	0	0	502	0	0	482	39	5	
15	0	0	0	0	506	0	0	478	39	5	
0	0	0	0	0	510	0	0	476	39	5	
1	0	0	0	0	498	208	0	474	39	5	
2	0	0	0	0	496	798	0	481	39	5	
3	0	0	0	0	499	1023	0	508	38	6	
4	0	0	0	0	505	1023	0	525	39	5	
5	0	0	0	0	503	1023	0	539	39	5	
6	0	0	0	0	509	1023	0	553	39	5	
7	0	0	0	0	507	1022	0	551	39	5	
8	0	0	0	0	507	686	0	556	39	5	
9	0	0	0	0	500	16	0	552	39	5	
10	0	0	0	0	506	0	0	553	39	5	
11	0	0	0	0	505	0	0	561	39	5	
12	0	0	0	0	507	0	0	558	39	6	
13	0	0	0	0	506	0	0	585	39	5	
14	0	0	0	0	508	135	0	566	39	6	
15	0	0	0	0	507	71	0	563	39	5	
0	0	0	0	0	502	0	0	564	39	5	
1	0	0	0	0	503	227	0	555	39	5	
2	0	0	0	0	504	859	0	562	39	5	
3	0	0	0	0	501	1022	0	562	39	5	
4	0	0	0	0	494	1023	0	565	39	6	
5	0	0	0	0	498	1022	0	575	39	5	
6	0	0	0	0	504	1023	0	571	39	6	
7	0	0	0	0	511	1023	0	579	39	5	
8	0	0	0	0	511	1023	0	575	39	5	
9	0	0	0	0	510	876	0	572	39	5	
10	0	0	0	0	508	207	0	580	39	5	
11	0	0	0	0	504	0	0	572	38	5	
12	0	0	0	0	497	0	0	564	39	6	
13	0	0	0	0	500	0	0	559	39	5	
14	0	0	0	0	499	398	0	553	39	6	
15	0	0	0	0	499	573	0	550	39	5	
0	0	0	0	0	500	475	0	561	39	5	
1	0	0	0	0	504	423	0	556	39	5	
2	0	0	0	0	503	838	0	540	39	5	
3	0	0	0	0	503	1022	0	524	38	5	
4	0	0	0	0	503	1023	0	510	39	5	
5	0	0	0	0	499	1022	0	508	39	6	
6	0	0	0	0	491	1022	0	524	39	5	
7	0	0	0	0	515	1023	0	527	39	5	
8	0	0	0	0	513	1022	0	547	39	5	
9	0	0	0	0	511	1023	0	545	39	5	
10	0	0	0	0	509	920	0	544	39	5	
11	0	0	0	0	507	283	0	545	39	5	
12	0	0	0	0	507	0	0	547	39	5	
13	0	0	0	0	496	0	0	548	39	6	
14	0	0	0	0	502	198	0	541	39	5	
15	0	0	0	0	497	482	0	528	39	5	
0	0	0	0	0	500	485	0	515	39	5	
1	0	0	0	0	505	328	0	504	39	5	
2	0	0	0	0	502	404	0	498	39	5	
3	0	0	0	0	497	939	0	491	39	5	
4	0	0	0	0	495	1022	0	489	39	5	
5	0	0	0	0	500	1022	0	511	39	6	
6	0	0	0	0	504	1023	0	525	39	5	
7	0	0	0	0	505	1023	0	535	39	5	
8	0	0	0	0	507	1023	0	545	39	5	
9	0	0	0	0	512	1022	0	540	39	5	
10	0	0	0	0	503	1022	0	538	39	5	
11	0	0	0	0	512	390	0	539	39	5	
12	0	0	0	0	504	0	0	540	39	5	
13	0	0	0	0	504	0	0	540	39	5	
14	0	0	0	0	500	0	0	536	39	6	
15	0	0	0	0	495	0	0	524	39	5	
0	0	0	0	0	506	209	0	511	39	5	
1	0	0	0	0	504	100	0	503	39	5	
2	0	0	0	0	499	0	0	496	39	5	
3	0	0	0	0	500	136	0	493	39	5	
4	0	0	0	0	503	751	0	488	39	5	
5	0	0	0	0	509	1023	0	484	39	5	
6	0	0	0	0	497	1022	0	483	39	6	
7	0	0	0	0	504	1023	0	483	39	5	
8	0	0	0	0	508	1022	0	482	39	5	
9	0	0	0	0	510	1023	0	479	39	5	
10	0	0	0	0	508	1022	0	474	39	5	
11	0	0	0	0	509	512	0	477	38	5	
12	0	0	0	0	502	0	0	477	39	5	
13	0	0	0	0	502	0	0	484	39	5	
14	0	0	0	0	498	0	0	508	39	6	
15	0	0	0	0	507	0	0	517	39	5	
0	0	0	0	0	498	0	0	527	39	5	
1	0	0	0	0	500	0	0	539	39	5	
2	0	0	0	0	498	0	0	538	39	5	
3	0	0	0	0	507	0	0	550	39	5	
4	0	0	0	0	502	0	0	549	39	5	
5	0	0	0	0	501	487	0	546	39	5	
6	0	0	0	0	506	1022	0	544	39	5	
7	0	0	0	0	503	1023	0	555	39	6	
8	0	0	0	0	502	1023	0	549	39	5	
9	0	0	0	0	501	1022	0	543	39	5	
10	0	0	0	0	508	1022	0	541	39	5	
11	0	0	0	0	508	709	0	540	39	5	
12	0	0	0	0	507	0	0	537	39	5	
13	0	0	0	0	510	0	0	534	39	5	
14	0	0	0	0	506	0	0	521	39	5	
15	0	0	0	0	501	0	0	509	39	6	
0	0	0	0	0	488	0	0	497	39	5	
1	0	0	0	0	495	0	0	489	39	5	
2	0	0	0	0	498	0	0	483	39	5	
3	0	0	0	0	505	0	0	474	39	5	
4	0	0	0	0	499	0	0	474	39	5	
5	0	0	0	0	505	0	0	473	39	5	
6	0	0	0	0	499	500	0	478	39	5	
7	0	0	0	0	504	1023	0	500	39	6	
8	0	0	0	0	503	1023	0	508	39	5	
9	0	0	0	0	502	1023	0	517	39	5	
10	0	0	0	0	508	1022	0	531	39	5	
11	0	0	0	0	510	1022	0	528	39	5	
12	0	0	0	0	505	326	0	516	39	5	
13	0	0	0	0	503	0	0	500	39	5	
14	0	0	0	0	509	0	0	490	39	5	
15	0	0	0	0	507	0	0	480	39	5	
0	0	0	0	0	504	0	0	472	39	6	
1	0	0	0	0	499	0	0	466	39	5	
2	0	0	0	0	502	0	0	464	39	6	
3	0	0	0	0	504	0	0	467	38	5	
4	0	0	0	0	507	0	0	469	39	5	
5	0	0	0	0	502	0	0	474	39	5	
6	0	0	0	0	494	131	0	476	39	5	
7	0	0	0	0	503	748	0	470	39	5	
8	0	0	0	0	504	1022	0	470	39	6	
9	0	0	0	0	503	1022	0	467	39	5	
10	0	0	0	0	499	1022	0	470	39	5	
11	0	0	0	0	504	1022	0	473	38	5	
12	0	0	0	0	510	1022	0	472	39	5	
13	0	0	0	0	503	184	0	475	39	5	
14	0	0	0	0	512	0	0	478	39	5	
15	0	0	0	0	511	0	0	481	39	5	
0	0	0	0	0	499	0	0	481	39	6	
1	0	0	0	0	505	0	0	475	39	5	
2	0	0	0	0	503	0	0	492	39	6	
3	0	0	0	0	495	0	0	516	39	5	
4	0	0	0	0	507	0	0	524	39	5	
5	0	0	0	0	503	0	0	520	39	5	
6	0	0	0	0	499	0	0	511	39	5	
7	0	0	0	0	499	487	0	504	39	5	
8	0	0	0	0	502	1022	0	492	39	5	
9	0	0	0	0	502	1022	0	485	39	6	
10	0	0	0	0	499	1023	0	482	39	5	
11	0	0	0	0	504	1023	0	479	39	6	
12	0	0	0	0	511	1022	0	480	39	6	
13	0	0	0	0	507	835	0	482	39	5	
14	0	0	0	0	506	69	0	484	38	5	
15	0	0	0	0	505	0	0	482	39	5	
0	0	0	0	0	503	0	0	473	39	5	
1	0	0	0	0	504	0	0	470	38	6	
2	0	0	0	0	500	0	0	472	38	5	
3	0	0	0	0	497	0	0	477	38	6	
4	0	0	0	0	501	0	0	480	39	5	
5	0	0	0	0	504	0	0	480	39	5	
6	0	0	0	0	503	0	0	500	38	5	
7	0	0	0	0	499	148	0	524	39	5	
8	0	0	0	0	504	676	0	527	39	5	
9	0	0	0	0	496	1022	0	518	38	6	
10	0	0	0	0	506	1022	0	511	39	5	
11	0	0	0	0	499	1022	0	519	39	6	
12	0	0	0	0	508	1022	0	540	39	5	
13	0	0	0	0	505	1023	0	543	39	5	
14	0	0	0	0	505	433	0	535	39	5	
15	0	0	0	0	511	0	0	526	39	5	
0	0	0	0	0	508	0	0	516	39	5	
1	0	0	0	0	510	0	0	510	39	5	
2	0	0	0	0	497	0	0	510	39	6	
3	0	0	0	0	508	0	0	530	38	6	
4	0	0	0	0	501	0	0	553	39	6	
5	0	0	0	0	498	0	0	549	39	5	
6	0	0	0	0	501	0	0	561	38	5	
7	0	0	0	0	505	0	0	558	38	5	
8	0	0	0	0	494	285	0	563	38	5	
9	0	0	0	0	500	897	0	560	39	5	
10	0	0	0	0	505	1022	0	561	39	6	
11	0	0	0	0	500	1023	0	572	39	5	
12	0	0	0	0	502	1022	0	571	39	6	
13	0	0	0	0	512	1022	0	579	39	5	
14	0	0	0	0	512	1023	0	574	39	5	
15	0	0	0	0	512	535	0	571	39	5	
0	0	0	0	0	508	0	0	573	39	5	
1	0	0	0	0	505	0	0	563	39	5	
2	0	0	0	0	500	0	0	571	39	6	
3	0	0	0	0	504	0	0	569	39	5	
4	0	0	0	0	502	116	0	570	39	6	
5	0	0	0	0	495	270	0	572	39	6	
6	0	0	0	0	511	155	0	565	39	5	
7	0	0	0	0	504	64	0	557	39	5	
8	0	0	0	0	502	419	0	551	39	5	
9	0	0	0	0	498	955	0	561	39	5	
10	0	0	0	0	499	1022	0	536	39	5	
11	0	0	0	0	495	1023	0	523	38	6	
12	0	0	0	0	502	1023	0	510	38	6	
13	0	0	0	0	508	1023	0	500	39	6	
14	0	0	0	0	510	1022	0	495	39	6	
15	0	0	0	0	515	1022	0	491	39	5	
0	0	0	0	0	510	319	0	484	38	5	
1	0	0	0	0	508	0	0	478	39	5	
2	0	0	0	0	506	0	0	473	39	5	
3	0	0	0	0	503	0	0	475	38	6	
4	0	0	0	0	493	0	0	479	39	5	
5	0	0	0	0	496	0	0	479	39	6	
6	0	0	0	0	499	0	0	481	39	5	
7	0	0	0	0	498	0	0	480	39	5	
8	0	0	0	0	496	0	0	476	39	5	
9	0	0	0	0	504	285	0	476	39	5	
10	0	0	0	0	501	803	0	479	39	5	
11	0	0	0	0	505	1023	0	505	38	6	
12	0	0	0	0	499	1023	0	521	39	5	
13	0	0	0	0	499	1022	0	535	39	6	
14	0	0	0	0	512	1022	0	551	39	5	
15	0	0	0	0	514	1022	0	557	39	5	
0	0	0	0	0	504	552	0	561	39	5	
1	0	0	0	0	504	0	0	560	39	5	
2	0	0	0	0	506	0	0	561	39	5	
3	0	0	0	0	507	0	0	569	39	5	
4	0	0	0	0	501	0	0	564	39	6	
5	0	0	0	0	502	0	0	572	39	5	
6	0	0	0	0	503	0	0	567	39	6	
7	0	0	0	0	498	0	0	563	39	5	
8	0	0	0	0	497	0	0	562	39	5	
9	0	0	0	0	508	0	0	551	39	5	
10	0	0	0	0	499	426	0	557	39	5	
11	0	0	0	0	497	951	0	557	39	5	
12	0	0	0	0	505	1022	0	557	39	6	
13	0	0	0	0	504	1022	0	565	39	5	
14	0	0	0	0	495	1022	0	559	39	6	
15	0	0	0	0	508	1023	0	562	39	5	
0	0	0	0	0	507	1022	0	554	39	5	
1	0	0	0	0	508	452	0	550	39	5	
2	0	0	0	0	510	0	0	555	39	5	
3	0	0	0	0	512	0	0	548	38	5	
4	0	0	0	0	510	0	0	555	39	6	
5	0	0	0	0	499	0	0	551	39	5	
6	0	0	0	0	501	0	0	550	39	6	
7	0	0	0	0	500	0	0	554	39	6	
8	0	0	0	0	506	0	0	546	39	5	
9	0	0	0	0	504	0	0	553	39	5	
10	0	0	0	0	497	79	0	550	39	5	
11	0	0	0	0	497	626	0	551	38	5	
12	0	0	0	0	500	1022	0	552	39	5	
13	0	0	0	0	499	1022	0	545	39	6	
14	0	0	0	0	503	1023	0	539	39	5	
15	0	0	0	0	512	1023	0	536	39	5	
0	0	0	0	0	510	1022	0	534	39	5	
1	0	0	0	0	506	965	0	526	39	5	
2	0	0	0	0	505	199	0	514	39	5	
3	0	0	0	0	508	0	0	501	39	5	
4	0	0	0	0	510	0	0	492	39	5	
5	0	0	0	0	500	0	0	486	39	6	
6	0	0	0	0	498	0	0	480	39	5	
7	0	0	0	0	499	0	0	476	39	6	
8	0	0	0	0	504	0	0	467	39	5	
9	0	0	0	0	503	0	0	464	39	5	
10	0	0	0	0	500	0	0	464	39	5	
11	0	0	0	0	502	224	0	465	39	5	
12	0	0	0	0	491	787	0	468	39	5	
13	0	0	0	0	505	1022	0	470	39	6	
14	0	0	0	0	504	1023	0	469	39	5	
15	0	0	0	0	504	1022	0	469	39	6	
0	0	0	0	0	508	1023	0	475	39	5	
1	0	0	0	0	507	1023	0	494	39	5	
2	0	0	0	0	507	560	0	504	39	5	
3	0	0	0	0	511	0	0	522	38	5	
4	0	0	0	0	503	0	0	533	39	5	
5	0	0	0	0	507	0	0	536	39	5	
6	0	0	0	0	498	0	0	545	39	6	
7	0	0	0	0	500	0	0	539	39	5	
8	0	0	0	0	502	0	0	541	39	6	
9	0	0	0	0	501	0	0	540	39	5	
10	0	0	0	0	513	0	0	551	39	5	
11	0	0	0	0	500	0	0	549	39	5	
12	0	0	0	0	501	412	0	547	39	5	
13	0	0	0	0	497	1011	0	554	39	5	
14	0	0	0	0	501	1023	0	556	39	6	
15	0	0	0	0	500	1023	0	551	39	5	
0	0	0	0	0	500	1023	0	558	39	5	
1	0	0	0	0	511	1023	0	550	39	5	
2	0	0	0	0	501	1022	0	553	39	5	
3	0	0	0	0	508	489	0	553	39	5	
4	0	0	0	0	508	0	0	548	39	5	
5	0	0	0	0	507	0	0	558	39	5	
6	0	0	0	0	504	0	0	550	39	6	
7	0	0	0	0	496	0	0	551	39	5	
8	0	0	0	0	505	0	0	551	39	5	
9	0	0	0	0	500	0	0	544	39	5	
10	0	0	0	0	500	0	0	567	39	5	
11	0	0	0	0	504	0	0	545	39	5	
12	0	0	0	0	506	164	0	548	39	5	
13	0	0	0	0	498	744	0	548	39	5	
14	0	0	0	0	498	1022	0	545	39	5	
15	0	0	0	0	499	1023	0	555	39	6	
0	0	0	0	0	498	1023	0	565	38	5	
1	0	0	0	0	511	1022	0	552	38	5	
2	0	0	0	0	508	1022	0	555	38	5	
3	0	0	0	0	516	769	0	550	38	5	
4	0	0	0	0	506	55	0	543	38	5	
5	0	0	0	0	513	0	0	538	38	5	
6	0	0	0	0	509	0	0	534	38	5	
7	0	0	0	0	498	0	0	519	39	6	
8	0	0	0	0	494	0	0	506	39	5	
9	0	0	0	0	492	0	0	498	39	5	
10	0	0	0	0	502	0	0	488	39	5	
11	0	0	0	0	504	0	0	480	39	5	
12	0	0	0	0	500	0	0	475	39	5	
13	0	0	0	0	496	419	0	471	39	5	
14	0	0	0	0	504	922	0	468	39	5	
15	0	0	0	0	499	1023	0	464	39	6	
0	0	0	0	0	503	1023	0	460	39	5	
1	0	0	0	0	505	1022	0	454	38	6	
2	0	0	0	0	508	1023	0	457	38	5	
3	0	0	0	0	514	1022	0	459	38	5	
4	0	0	0	0	507	455	0	460	38	5	
5	0	0	0	0	509	0	0	468	39	5	
6	0	0	0	0	511	0	0	463	39	5	
7	0	0	0	0	505	0	0	462	39	5	
8	0	0	0	0	502	0	0	463	38	6	
9	0	0	0	0	496	28	0	459	38	5	
10	0	0	0	0	498	223	0	461	39	5	
11	0	0	0	0	496	154	0	460	39	5	
12	0	0	0	0	499	60	0	462	39	5	
13	0	0	0	0	504	238	0	464	39	5	
14	0	0	0	0	497	723	0	466	39	5	
15	0	0	0	0	499	1022	0	465	39	5	
0	0	0	0	0	496	1022	0	463	39	6	
1	0	0	0	0	498	1022	0	461	39	5	
2	0	0	0	0	505	1022	0	465	39	5	
3	0	0	0	0	510	1023	0	468	38	5	
4	0	0	0	0	513	748	0	468	38	5	
5	0	0	0	0	507	0	0	472	38	5	
6	0	0	0	0	506	0	0	472	39	5	
7	0	0	0	0	506	0	0	473	39	5	
8	0	0	0	0	504	0	0	468	39	6	
9	0	0	0	0	504	0	0	465	39	5	
10	0	0	0	0	503	0	0	467	39	6	
11	0	0	0	0	502	32	0	469	39	5	
12	0	0	0	0	507	0	0	473	39	5	
13	0	0	0	0	505	0	0	473	39	5	
14	0	0	0	0	503	284	0	472	39	5	
15	0	0	0	0	501	723	0	473	39	5	
0	0	0	0	0	499	1022	0	471	39	5	
1	0	0	0	0	495	1022	0	471	39	6	
2	0	0	0	0	499	1023	0	473	39	5	
3	0	0	0	0	500	1023	0	474	39	5	
4	0	0	0	0	510	1022	0	479	39	5	
5	0	0	0	0	517	499	0	481	39	5	
6	0	0	0	0	507	0	0	486	39	5	
7	0	0	0	0	508	0	0	484	39	5	
8	0	0	0	0	505	0	0	480	39	5	
9	0	0	0	0	499	0	0	480	39	6	
10	0	0	0	0	503	0	0	490	39	5	
11	0	0	0	0	496	0	0	518	39	6	
12	0	0	0	0	500	0	0	529	39	5	
13	0	0	0	0	499	0	0	546	39	5	
14	0	0	0	0	497	0	0	553	39	5	
15	0	0	0	0	505	185	0	542	39	5	
0	0	0	0	0	496	618	0	530	39	5	
1	0	0	0	0	502	998	0	539	39	6	
2	0	0	0	0	499	1022	0	542	39	5	
3	0	0	0	0	502	1022	0	531	39	6	
4	0	0	0	0	510	1023	0	521	39	5	
5	0	0	0	0	514	884	0	513	38	5	
6	0	0	0	0	505	54	0	505	38	5	
7	0	0	0	0	506	0	0	518	39	5	
8	0	0	0	0	511	0	0	529	39	5	
9	0	0	0	0	510	0	0	536	38	5	
10	0	0	0	0	496	0	0	553	39	6	
11	0	0	0	0	500	0	0	555	39	5	
12	0	0	0	0	498	0	0	566	39	6	
13	0	0	0	0	506	0	0	568	39	6	
14	0	0	0	0	502	0	0	567	38	5	
15	0	0	0	0	499	0	0	569	39	5	
0	0	0	0	0	499	500	0	559	39	5	
1	0	0	0	0	495	927	0	561	39	5	
2	0	0	0	0	502	1022	0	560	39	6	
3	0	0	0	0	504	1022	0	560	39	6	
4	0	0	0	0	507	1023	0	572	39	6	
5	0	0	0	0	512	1023	0	568	39	6	
6	0	0	0	0	501	1022	0	573	39	5	
7	0	0	0	0	510	388	0	576	39	5	
8	0	0	0	0	513	436	0	571	39	5	
9	0	0	0	0	500	889	0	581	39	5	
10	0	0	0	0	503	1023	0	574	39	6	
11	0	0	0	0	502	1023	0	577	39	6	
12	0	0	0	0	499	1022	0	575	39	6	
13	0	0	0	0	509	1023	0	566	39	6	
14	0	0	0	0	504	1023	0	570	39	5	
15	0	0	0	0	503	1023	0	558	39	5	
0	0	0	0	0	491	1022	0	557	39	5	
1	0	0	0	0	502	1022	0	553	39	5	
2	0	0	0	0	499	1022	0	550	39	5	
3	0	0	0	0	508	1023	0	561	38	6	
4	0	0	0	0	500	1023	0	561	39	6	
5	0	0	0	0	513	1023	0	567	39	6	
6	0	0	0	0	508	1022	0	568	39	6	
7	0	0	0	0	509	1022	0	566	39	5	
8	0	0	0	0	513	915	0	571	39	5	
9	0	0	0	0	506	109	0	563	39	5	
10	0	0	0	0	504	0	0	564	39	5	
11	0	0	0	0	497	0	0	564	38	6	
12	0	0	0	0	500	0	0	559	39	6	
13	0	0	0	0	497	96	0	566	39	6	
14	0	0	0	0	497	119	0	558	39	6	
15	0	0	0	0	503	0	0	557	39	5	
0	0	0	0	0	505	0	0	553	39	5	
1	0	0	0	0	491	434	0	545	39	5	
2	0	0	0	0	502	971	0	555	39	5	
3	0	0	0	0	497	1023	0	550	38	6	
4	0	0	0	0	496	1023	0	555	39	6	
5	0	0	0	0	506	1022	0	559	39	6	
6	0	0	0	0	508	1022	0	555	39	6	
7	0	0	0	0	504	1022	0	568	39	6	
8	0	0	0	0	510	706	0	545	39	5	
9	0	0	0	0	510	0	0	543	39	5	
10	0	0	0	0	504	0	0	541	39	5	
11	0	0	0	0	508	0	0	537	38	5	
12	0	0	0	0	496	0	0	546	39	6	
13	0	0	0	0	504	0	0	543	39	6	
14	0	0	0	0	502	0	0	547	39	6	
15	0	0	0	0	500	0	0	549	39	6	
0	0	0	0	0	505	0	0	545	39	5	
1	0	0	0	0	499	0	0	552	39	5	
2	0	0	0	0	499	173	0	547	39	5	
3	0	0	0	0	498	795	0	548	39	5	
4	0	0	0	0	503	1022	0	550	39	6	
5	0	0	0	0	504	1022	0	546	39	6	
6	0	0	0	0	505	1023	0	552	39	6	
7	0	0	0	0	504	1023	0	543	39	6	
8	0	0	0	0	508	1022	0	544	39	5	
9	0	0	0	0	510	197	0	545	39	5	
10	0	0	0	0	503	0	0	540	39	5	
11	0	0	0	0	505	0	0	551	39	5	
12	0	0	0	0	502	0	0	554	39	6	
13	0	0	0	0	499	0	0	553	39	6	
14	0	0	0	0	498	0	0	555	39	6	
15	0	0	0	0	508	0	0	549	39	6	
0	0	0	0	0	504	0	0	554	39	6	
1	0	0	0	0	514	0	0	542	39	5	
2	0	0	0	0	501	0	0	545	39	5	
3	0	0	0	0	500	374	0	542	39	5	
4	0	0	0	0	498	992	0	538	39	5	
5	0	0	0	0	499	1023	0	547	39	6	
6	0	0	0	0	500	1023	0	542	39	6	
7	0	0	0	0	500	1023	0	546	39	6	
8	0	0	0	0	510	1022	0	548	39	6	
9	0	0	0	0	513	756	0	541	39	5	
10	0	0	0	0	508	0	0	549	39	5	
11	0	0	0	0	506	0	0	543	39	5	
12	0	0	0	0	504	0	0	545	39	5	
13	0	0	0	0	504	0	0	548	39	6	
14	0	0	0	0	501	0	0	536	39	6	
15	0	0	0	0	497	0	0	540	39	6	
0	0	0	0	0	506	0	0	526	39	6	
1	0	0	0	0	511	0	0	528	39	5	
2	0	0	0	0	502	0	0	531	39	5	
3	0	0	0	0	496	279	0	530	38	5	
4	0	0	0	0	499	896	0	539	39	5	
5	0	0	0	0	500	1023	0	534	39	6	
6	0	0	0	0	496	1022	0	537	39	6	
7	0	0	0	0	502	1022	0	536	39	6	
8	0	0	0	0	508	1023	0	528	39	5	
9	0	0	0	0	506	1022	0	520	39	5	
10	0	0	0	0	512	684	0	513	39	5	
11	0	0	0	0	508	0	0	500	39	5	
12	0	0	0	0	501	0	0	490	39	5	
13	0	0	0	0	501	0	0	476	39	5	
14	0	0	0	0	499	0	0	470	39	6	
15	0	0	0	0	507	0	0	473	39	5	
0	0	0	0	0	494	0	0	470	39	6	
1	0	0	0	0	506	0	0	466	39	6	
2	0	0	0	0	501	0	0	463	39	5	
3	0	0	0	0	503	0	0	465	38	5	
4	0	0	0	0	504	306	0	461	39	5	
5	0	0	0	0	504	923	0	462	39	5	
6	0	0	0	0	495	1022	0	459	39	6	
7	0	0	0	0	493	1023	0	458	39	5	
8	0	0	0	0	495	1022	0	457	39	6	
9	0	0	0	0	506	1023	0	452	39	6	
10	0	0	0	0	512	1022	0	455	39	5	
11	0	0	0	0	510	371	0	454	39	5	
12	0	0	0	0	508	0	0	456	39	5	
13	0	0	0	0	505	0	0	461	39	5	
14	0	0	0	0	508	0	0	463	39	6	
15	0	0	0	0	506	0	0	461	39	5	
0	0	0	0	0	496	0	0	456	39	6	
1	0	0	0	0	499	0	0	454	39	5	
2	0	0	0	0	496	0	0	454	39	5	
3	0	0	0	0	505	0	0	456	39	5	
4	0	0	0	0	510	0	0	461	39	5	
5	0	0	0	0	499	518	0	463	39	5	
6	0	0	0	0	498	1022	0	464	39	5	
7	0	0	0	0	494	1022	0	470	39	6	
8	0	0	0	0	501	1023	0	467	39	5	
9	0	0	0	0	505	1022	0	468	39	6	
10	0	0	0	0	505	1022	0	468	39	5	
11	0	0	0	0	508	900	0	468	39	5	
12	0	0	0	0	510	139	0	474	39	5	
13	0	0	0	0	504	0	0	475	39	5	
14	0	0	0	0	504	0	0	474	39	5	
15	0	0	0	0	498	0	0	477	39	6	
0	0	0	0	0	495	0	0	471	39	5	
1	0	0	0	0	498	0	0	470	39	6	
2	0	0	0	0	505	0	0	468	39	5	
3	0	0	0	0	508	0	0	471	39	5	
4	0	0	0	0	508	0	0	489	39	5	
5	0	0	0	0	493	212	0	516	39	5	
6	0	0	0	0	504	798	0	524	39	5	
7	0	0	0	0	497	1023	0	517	39	6	
8	0	0	0	0	499	1023	0	508	39	5	
9	0	0	0	0	500	1022	0	515	39	5	
10	0	0	0	0	512	1022	0	530	39	5	
11	0	0	0	0	511	1022	0	529	39	5	
12	0	0	0	0	503	414	0	519	39	5	
13	0	0	0	0	505	0	0	508	39	5	
14	0	0	0	0	511	0	0	500	39	5	
15	0	0	0	0	507	0	0	492	39	5	
0	0	0	0	0	496	0	0	486	39	6	
1	0	0	0	0	499	0	0	476	39	5	
2	0	0	0	0	502	0	0	472	39	6	
3	0	0	0	0	505	0	0	475	38	5	
4	0	0	0	0	504	0	0	476	39	5	
5	0	0	0	0	499	0	0	479	39	5	
6	0	0	0	0	491	213	0	479	39	5	
7	0	0	0	0	496	829	0	475	39	5	
8	0	0	0	0	500	1023	0	487	39	6	
9	0	0	0	0	503	1022	0	512	39	5	
10	0	0	0	0	503	1022	0	519	39	6	
11	0	0	0	0	509	1023	0	512	38	5	
12	0	0	0	0	513	1022	0	502	39	5	
13	0	0	0	0	507	167	0	495	39	5	
14	0	0	0	0	508	0	0	487	39	5	
15	0	0	0	0	509	0	0	484	39	5	
0	0	0	0	0	509	0	0	481	39	6	
1	0	0	0	0	492	0	0	497	39	5	
2	0	0	0	0	493	0	0	515	39	6	
3	0	0	0	0	506	0	0	525	39	6	
4	0	0	0	0	499	0	0	543	39	5	
5	0	0	0	0	508	0	0	543	39	5	
6	0	0	0	0	501	0	0	548	39	5	
7	0	0	0	0	497	378	0	553	39	5	
8	0	0	0	0	500	1008	0	549	39	5	
9	0	0	0	0	494	1023	0	557	39	6	
10	0	0	0	0	498	1023	0	553	39	5	
11	0	0	0	0	507	1022	0	553	39	6	
12	0	0	0	0	512	1022	0	555	39	6	
13	0	0	0	0	506	814	0	552	39	5	
14	0	0	0	0	507	19	0	561	39	5	
15	0	0	0	0	508	0	0	557	39	5	
0	0	0	0	0	502	0	0	562	39	5	
1	0	0	0	0	497	0	0	559	39	6	
2	0	0	0	0	501	0	0	552	39	5	
3	0	0	0	0	498	0	0	560	38	6	
4	0	0	0	0	508	0	0	553	39	6	
5	0	0	0	0	512	0	0	546	39	5	
6	0	0	0	0	507	0	0	545	39	5	
7	0	0	0	0	496	153	0	552	39	5	
8	0	0	0	0	503	722	0	548	39	5	
9	0	0	0	0	499	1023	0	543	39	6	
10	0	0	0	0	500	1023	0	540	39	5	
11	0	0	0	0	492	1022	0	536	39	6	
12	0	0	0	0	504	1022	0	527	39	6	
13	0	0	0	0	512	1022	0	515	39	5	
14	0	0	0	0	513	611	0	503	39	5	
15	0	0	0	0	509	0	0	494	39	5	
0	0	0	0	0	507	0	0	490	39	5	
1	0	0	0	0	502	0	0	475	39	5	
2	0	0	0	0	503	0	0	473	39	6	
3	0	0	0	0	494	0	0	472	39	6	
4	0	0	0	0	495	0	0	473	39	6	
5	0	0	0	0	511	0	0	476	39	6	
6	0	0	0	0	503	0	0	478	39	5	
7	0	0	0	0	502	0	0	480	39	5	
8	0	0	0	0	503	515	0	479	39	5	
9	0	0	0	0	502	1022	0	472	39	5	
10	0	0	0	0	496	1022	0	474	39	6	
11	0	0	0	0	497	1022	0	477	39	5	
12	0	0	0	0	501	1023	0	478	39	6	
13	0	0	0	0	506	1023	0	479	39	6	
14	0	0	0	0	514	1022	0	480	39	5	
15	0	0	0	0	506	442	0	480	39	5	
0	0	0	0	0	504	0	0	478	39	5	
1	0	0	0	0	513	0	0	477	39	5	
2	0	0	0	0	501	0	0	499	39	6	
3	0	0	0	0	508	0	0	515	39	5	
4	0	0	0	0	507	0	0	528	39	6	
5	0	0	0	0	503	0	0	547	39	6	
6	0	0	0	0	504	0	0	550	39	5	
7	0	0	0	0	501	0	0	560	39	5	
8	0	0	0	0	502	143	0	555	39	5	
9	0	0	0	0	502	738	0	552	39	5	
10	0	0	0	0	497	1022	0	561	39	5	
11	0	0	0	0	502	1022	0	559	38	6	
12	0	0	0	0	504	1023	0	552	39	6	
13	0	0	0	0	496	1023	0	547	39	6	
14	0	0	0	0	509	1022	0	543	39	6	
15	0	0	0	0	502	1022	0	534	39	5	
0	0	0	0	0	503	171	0	521	39	5	
1	0	0	0	0	510	0	0	507	39	5	
2	0	0	0	0	508	0	0	498	39	5	
3	0	0	0	0	499	0	0	492	38	6	
4	0	0	0	0	504	0	0	487	39	5	
5	0	0	0	0	504	0	0	485	39	6	
6	0	0	0	0	504	0	0	481	39	6	
7	0	0	0	0	508	0	0	478	39	5	
8	0	0	0	0	497	0	0	477	39	5	
9	0	0	0	0	500	6	0	474	39	5	
10	0	0	0	0	501	585	0	485	39	5	
11	0	0	0	0	506	1023	0	507	38	6	
12	0	0	0	0	495	1023	0	523	39	6	
13	0	0	0	0	497	1022	0	537	39	6	
14	0	0	0	0	508	1023	0	551	39	6	
15	0	0	0	0	510	1022	0	545	39	6	
0	0	0	0	0	508	359	0	557	39	5	
1	0	0	0	0	513	0	0	559	39	5	
2	0	0	0	0	504	0	0	557	39	5	
3	0	0	0	0	502	0	0	553	39	5	
4	0	0	0	0	509	0	0	548	39	6	
5	0	0	0	0	494	0	0	542	39	6	
6	0	0	0	0	510	0	0	529	39	6	
7	0	0	0	0	498	0	0	513	39	6	
8	0	0	0	0	502	0	0	502	39	5	
9	0	0	0	0	505	0	0	495	39	5	
10	0	0	0	0	502	197	0	487	39	5	
11	0	0	0	0	501	813	0	482	39	5	
12	0	0	0	0	504	1022	0	477	39	6	
13	0	0	0	0	503	1022	0	475	39	6	
14	0	0	0	0	498	1022	0	473	39	6	
15	0	0	0	0	508	1023	0	472	39	6	
0	0	0	0	0	505	1022	0	471	39	6	
1	0	0	0	0	504	211	0	471	39	5	
2	0	0	0	0	504	0	0	469	39	5	
3	0	0	0	0	504	0	0	473	39	5	
4	0	0	0	0	507	0	0	495	39	6	
5	0	0	0	0	503	0	0	510	39	6	
6	0	0	0	0	496	0	0	523	39	6	
7	0	0	0	0	503	0	0	535	39	6	
8	0	0	0	0	500	0	0	534	39	6	
9	0	0	0	0	513	0	0	544	39	5	
10	0	0	0	0	502	0	0	542	39	5	
11	0	0	0	0	497	543	0	543	39	5	
12	0	0	0	0	500	1022	0	533	39	5	
13	0	0	0	0	499	1022	0	531	39	6	
14	0	0	0	0	503	1023	0	528	39	6	
15	0	0	0	0	507	1023	0	525	39	6	
0	0	0	0	0	513	1022	0	530	39	6	
1	0	0	0	0	504	894	0	499	39	5	
2	0	0	0	0	503	29	0	491	39	5	
3	0	0	0	0	501	0	0	481	39	5	
4	0	0	0	0	508	0	0	471	39	5	
5	0	0	0	0	504	0	0	467	39	6	
6	0	0	0	0	498	0	0	463	39	6	
7	0	0	0	0	505	0	0	465	39	6	
8	0	0	0	0	500	0	0	459	39	6	
9	0	0	0	0	510	0	0	458	39	5	
10	0	0	0	0	511	0	0	454	39	5	
11	0	0	0	0	501	0	0	456	39	5	
12	0	0	0	0	492	587	0	458	39	5	
13	0	0	0	0	499	1023	0	482	39	6	
14	0	0	0	0	495	1023	0	498	39	6	
15	0	0	0	0	508	1023	0	511	39	6	
0	0	0	0	0	508	1022	0	525	39	6	
1	0	0	0	0	504	1022	0	521	39	6	
2	0	0	0	0	508	389	0	532	39	5	
3	0	0	0	0	511	0	0	533	39	5	
4	0	0	0	0	504	0	0	529	39	5	
5	0	0	0	0	500	0	0	527	39	5	
6	0	0	0	0	496	0	0	523	39	6	
7	0	0	0	0	498	0	0	519	39	6	
8	0	0	0	0	498	0	0	507	39	6	
9	0	0	0	0	497	0	0	496	39	6	
10	0	0	0	0	501	0	0	491	39	5	
11	0	0	0	0	502	0	0	474	38	5	
12	0	0	0	0	503	39	0	467	39	5	
13	0	0	0	0	499	663	0	460	39	5	
14	0	0	0	0	508	1022	0	457	39	6	
15	0	0	0	0	503	1023	0	454	39	6	
0	0	0	0	0	501	1023	0	454	39	6	
1	0	0	0	0	508	1023	0	447	39	6	
2	0	0	0	0	512	1022	0	449	39	5	
3	0	0	0	0	511	54	0	449	38	5	
4	0	0	0	0	510	0	0	451	39	5	
5	0	0	0	0	504	0	0	461	39	5	
6	0	0	0	0	504	0	0	481	39	6	
7	0	0	0	0	504	0	0	495	39	6	
8	0	0	0	0	503	0	0	506	39	6	
9	0	0	0	0	496	0	0	519	39	6	
10	0	0	0	0	501	0	0	520	39	6	
11	0	0	0	0	510	0	0	531	39	5	
12	0	0	0	0	501	0	0	530	39	5	
13	0	0	0	0	496	303	0	531	39	5	
14	0	0	0	0	506	929	0	538	39	5	
15	0	0	0	0	498	1023	0	535	39	6	
0	0	0	0	0	496	1022	0	543	39	6	
1	0	0	0	0	508	1023	0	540	39	6	
2	0	0	0	0	509	1022	0	534	39	6	
3	0	0	0	0	509	766	0	529	39	5	
4	0	0	0	0	505	0	0	524	39	5	
5	0	0	0	0	504	0	0	520	39	5	
6	0	0	0	0	511	0	0	506	39	5	
7	0	0	0	0	491	0	0	496	39	6	
8	0	0	0	0	506	0	0	483	39	6	
9	0	0	0	0	505	0	0	469	39	6	
10	0	0	0	0	502	0	0	460	39	6	
11	0	0	0	0	499	0	0	459	38	5	
12	0	0	0	0	501	0	0	455	39	5	
13	0	0	0	0	504	0	0	456	39	5	
14	0	0	0	0	499	604	0	465	39	5	
15	0	0	0	0	496	1023	0	484	39	6	
0	0	0	0	0	499	1023	0	494	39	6	
1	0	0	0	0	506	1022	0	505	39	6	
2	0	0	0	0	507	1023	0	522	39	6	
3	0	0	0	0	512	1022	0	527	39	6	
4	0	0	0	0	506	530	0	528	39	5	
5	0	0	0	0	511	0	0	528	39	5	
6	0	0	0	0	507	0	0	528	39	5	
7	0	0	0	0	502	0	0	519	39	5	
8	0	0	0	0	499	0	0	509	39	6	
9	0	0	0	0	504	0	0	496	39	6	
10	0	0	0	0	498	0	0	488	39	6	
11	0	0	0	0	502	0	0	482	39	6	
12	0	0	0	0	500	0	0	477	39	5	
13	0	0	0	0	505	0	0	476	39	5	
14	0	0	0	0	499	252	0	476	39	5	
15	0	0	0	0	505	867	0	473	39	5	
0	0	0	0	0	498	1022	0	473	39	6	
1	0	0	0	0	499	1023	0	467	39	6	
2	0	0	0	0	503	1023	0	470	39	6	
3	0	0	0	0	512	1023	0	469	39	6	
4	0	0	0	0	514	1023	0	468	39	5	
5	0	0	0	0	512	280	0	471	39	5	
6	0	0	0	0	506	0	0	470	39	5	
7	0	0	0	0	503	0	0	475	39	5	
8	0	0	0	0	498	0	0	496	39	6	
9	0	0	0	0	502	0	0	507	39	6	
10	0	0	0	0	504	0	0	520	39	6	
11	0	0	0	0	500	0	0	535	39	6	
12	0	0	0	0	507	0	0	534	39	6	
13	0	0	0	0	503	0	0	547	39	5	
14	0	0	0	0	500	0	0	548	39	5	
15	0	0	0	0	500	472	0	547	39	5	
0	0	0	0	0	505	1022	0	548	39	5	
1	0	0	0	0	500	1022	0	539	39	6	
2	0	0	0	0	500	1022	0	547	39	6	
3	0	0	0	0	506	1023	0	547	39	6	
4	0	0	0	0	508	1022	0	549	39	6	
5	0	0	0	0	504	1000	0	556	39	5	
6	0	0	0	0	505	97	0	548	39	5	
7	0	0	0	0	506	0	0	555	39	5	
8	0	0	0	0	510	0	0	550	39	5	
9	0	0	0	0	504	0	0	548	39	6	
10	0	0	0	0	495	0	0	552	39	6	
11	0	0	0	0	499	0	0	551	39	6	
12	0	0	0	0	505	0	0	551	39	6	
13	0	0	0	0	505	0	0	547	39	5	
14	0	0	0	0	499	0	0	545	39	5	
15	0	0	0	0	496	71	0	550	39	5	
0	0	0	0	0	501	688	0	548	39	5	
1	0	0	0	0	509	1022	0	547	39	6	
2	0	0	0	0	497	1023	0	545	39	6	
3	0	0	0	0	503	1022	0	545	39	6	
4	0	0	0	0	503	1023	0	549	39	6	
5	0	0	0	0	510	1022	0	541	39	6	
6	0	0	0	0	508	633	0	546	39	5	
7	0	0	0	0	512	0	0	539	39	5	
8	0	0	0	0	501	0	0	532	39	5	
9	0	0	0	0	502	0	0	529	39	5	
10	0	0	0	0	502	0	0	527	39	6	
11	0	0	0	0	497	0	0	540	39	6	
12	0	0	0	0	500	0	0	525	39	6	
13	0	0	0	0	509	0	0	515	39	6	
14	0	0	0	0	499	0	0	504	39	5	
15	0	0	0	0	505	0	0	497	39	5	
0	0	0	0	0	503	324	0	489	39	5	
1	0	0	0	0	501	951	0	494	39	5	
2	0	0	0	0	495	1022	0	480	39	6	
3	0	0	0	0	498	1022	0	479	39	6	
4	0	0	0	0	502	1022	0	480	39	6	
5	0	0	0	0	505	1023	0	480	39	6	
6	0	0	0	0	512	1023	0	479	39	6	
7	0	0	0	0	514	399	0	486	39	5	
8	0	0	0	0	508	0	0	476	39	5	
9	0	0	0	0	509	0	0	472	39	5	
10	0	0	0	0	502	0	0	472	39	6	
11	0	0	0	0	493	0	0	491	39	6	
12	0	0	0	0	504	0	0	527	39	6	
13	0	0	0	0	505	0	0	523	39	6	
14	0	0	0	0	501	0	0	543	39	6	
15	0	0	0	0	508	0	0	542	39	5	
0	0	0	0	0	506	0	0	547	39	5	
1	0	0	0	0	499	515	0	558	39	5	
2	0	0	0	0	498	1022	0	550	39	5	
3	0	0	0	0	493	1022	0	544	38	6	
4	0	0	0	0	501	1023	0	541	39	6	
5	0	0	0	0	505	1023	0	539	39	6	
6	0	0	0	0	511	1023	0	527	39	6	
7	0	0	0	0	509	1022	0	515	39	5	
8	0	0	0	0	512	129	0	504	39	5	
9	0	0	0	0	500	0	0	493	39	5	
10	0	0	0	0	505	0	0	485	39	5	
11	0	0	0	0	500	0	0	483	38	6	
12	0	0	0	0	505	0	0	480	39	6	
13	0	0	0	0	499	0	0	478	39	6	
14	0	0	0	0	505	0	0	477	39	6	
15	0	0	0	0	508	0	0	473	39	6	
0	0	0	0	0	505	0	0	470	39	5	
1	0	0	0	0	496	89	0	466	39	5	
2	0	0	0	0	499	704	0	475	39	5	
3	0	0	0	0	503	1023	0	499	38	6	
4	0	0	0	0	504	1023	0	515	39	6	
5	0	0	0	0	498	1023	0	529	39	6	
6	0	0	0	0	501	1023	0	543	39	6	
7	0	0	0	0	512	1023	0	540	39	6	
8	0	0	0	0	516	636	0	550	39	5	
9	0	0	0	0	503	0	0	551	39	5	
10	0	0	0	0	501	0	0	552	39	5	
11	0	0	0	0	503	0	0	559	39	5	
12	0	0	0	0	494	0	0	551	39	6	
13	0	0	0	0	504	0	0	558	39	6	
14	0	0	0	0	507	0	0	553	39	6	
15	0	0	0	0	504	0	0	550	39	6	
0	0	0	0	0	503	0	0	549	39	5	
1	0	0	0	0	496	0	0	536	39	5	
2	0	0	0	0	505	313	0	543	39	5	
3	0	0	0	0	507	925	0	544	39	5	
4	0	0	0	0	501	1022	0	544	39	6	
5	0	0	0	0	502	1023	0	552	39	6	
6	0	0	0	0	505	1022	0	546	39	6	
7	0	0	0	0	501	1022	0	553	39	6	
8	0	0	0	0	511	1023	0	551	39	6	
9	0	0	0	0	514	400	0	544	39	5	
10	0	0	0	0	508	0	0	542	39	5	
11	0	0	0	0	506	0	0	537	39	5	
12	0	0	0	0	503	0	0	533	39	6	
13	0	0	0	0	500	0	0	530	39	6	
14	0	0	0	0	504	0	0	530	39	6	
15	0	0	0	0	502	0	0	520	39	6	
0	0	0	0	0	499	0	0	510	39	6	
1	0	0	0	0	507	0	0	497	39	5	
2	0	0	0	0	503	0	0	488	39	5	
3	0	0	0	0	496	519	0	481	39	5	
4	0	0	0	0	506	1022	0	475	39	5	
5	0	0	0	0	496	1022	0	470	39	6	
6	0	0	0	0	498	1023	0	466	39	6	
7	0	0	0	0	504	1023	0	463	39	6	
8	0	0	0	0	510	1022	0	462	39	6	
9	0	0	0	0	508	1022	0	456	39	5	
10	0	0	0	0	512	184	0	462	39	5	
11	0	0	0	0	507	0	0	460	39	5	
12	0	0	0	0	504	0	0	462	39	5	
13	0	0	0	0	503	0	0	460	39	6	
14	0	0	0	0	503	0	0	460	39	6	
15	0	0	0	0	501	0	0	462	39	6	
0	0	0	0	0	506	0	0	455	39	6	
1	0	0	0	0	503	0	0	457	39	6	
2	0	0	0	0	507	0	0	455	39	5	
3	0	0	0	0	505	106	0	457	39	5	
4	0	0	0	0	496	703	0	462	39	5	
5	0	0	0	0	496	1023	0	465	39	6	
6	0	0	0	0	504	1022	0	465	39	6	
7	0	0	0	0	499	1022	0	467	39	6	
8	0	0	0	0	504	1022	0	473	39	6	
9	0	0	0	0	514	1022	0	496	39	6	
10	0	0	0	0	515	710	0	504	39	5	
11	0	0	0	0	499	0	0	502	39	5	
12	0	0	0	0	508	0	0	497	39	5	
13	0	0	0	0	502	0	0	491	39	5	
14	0	0	0	0	496	0	0	487	39	6	
15	0	0	0	0	507	0	0	477	39	6	
0	0	0	0	0	503	0	0	467	39	6	
1	0	0	0	0	504	0	0	474	39	6	
2	0	0	0	0	499	0	0	494	39	5	
3	0	0	0	0	503	0	0	501	38	5	
4	0	0	0	0	500	318	0	496	39	5	
5	0	0	0	0	498	901	0	489	39	5	
6	0	0	0	0	501	1023	0	496	39	6	
7	0	0	0	0	500	1023	0	510	39	6	
8	0	0	0	0	511	1022	0	509	39	6	
9	0	0	0	0	503	1023	0	496	39	6	
10	0	0	0	0	510	1023	0	486	39	6	
11	0	0	0	0	515	431	0	477	38	5	
12	0	0	0	0	506	0	0	471	39	5	
13	0	0	0	0	503	0	0	471	38	5	
14	0	0	0	0	504	0	0	492	39	6	
15	0	0	0	0	504	0	0	501	39	6	
0	0	0	0	0	499	0	0	496	39	6	
1	0	0	0	0	498	0	0	492	38	6	
2	0	0	0	0	499	0	0	509	38	6	
3	0	0	0	0	499	0	0	509	38	5	
4	0	0	0	0	499	0	0	502	39	5	
5	0	0	0	0	500	412	0	492	39	5	
6	0	0	0	0	499	1022	0	480	39	5	
7	0	0	0	0	498	1022	0	472	39	6	
8	0	0	0	0	501	1023	0	464	39	6	
9	0	0	0	0	504	1023	0	477	39	6	
10	0	0	0	0	506	1022	0	495	39	6	
11	0	0	0	0	515	1022	0	496	39	5	
12	0	0	0	0	510	196	0	492	39	5	
13	0	0	0	0	511	0	0	484	39	5	
14	0	0	0	0	504	0	0	474	39	5	
15	0	0	0	0	497	0	0	469	39	6	
0	0	0	0	0	498	0	0	463	39	6	
1	0	0	0	0	497	0	0	464	39	6	
2	0	0	0	0	508	0	0	462	39	6	
3	0	0	0	0	499	0	0	462	38	6	
4	0	0	0	0	509	0	0	456	38	5	
5	0	0	0	0	500	0	0	458	38	5	
6	0	0	0	0	497	593	0	456	38	5	
7	0	0	0	0	498	1022	0	455	39	6	
8	0	0	0	0	498	1023	0	474	39	6	
9	0	0	0	0	497	1022	0	493	39	6	
10	0	0	0	0	511	1022	0	500	39	6	
11	0	0	0	0	510	1022	0	523	39	6	
12	0	0	0	0	504	742	0	526	39	5	
13	0	0	0	0	503	0	0	536	39	5	
14	0	0	0	0	507	0	0	540	39	5	
15	0	0	0	0	503	0	0	536	39	5	
0	0	0	0	0	505	0	0	543	39	6	
1	0	0	0	0	507	0	0	535	39	6	
2	0	0	0	0	502	0	0	540	39	6	
3	0	0	0	0	497	0	0	546	39	6	
4	0	0	0	0	513	0	0	539	39	5	
5	0	0	0	0	508	0	0	548	39	5	
6	0	0	0	0	498	222	0	539	39	5	
7	0	0	0	0	502	831	0	540	39	5	
8	0	0	0	0	501	1022	0	535	38	6	
9	0	0	0	0	499	1023	0	527	39	6	
10	0	0	0	0	502	1022	0	537	39	6	
11	0	0	0	0	510	1023	0	532	39	6	
12	0	0	0	0	513	1023	0	537	39	6	
13	0	0	0	0	509	385	0	538	39	5	
14	0	0	0	0	503	0	0	534	39	5	
15	0	0	0	0	505	0	0	540	39	5	
0	0	0	0	0	503	0	0	531	39	6	
1	0	0	0	0	507	0	0	534	39	6	
2	0	0	0	0	500	0	0	534	39	6	
3	0	0	0	0	501	0	0	531	39	6	
4	0	0	0	0	499	0	0	538	39	6	
5	0	0	0	0	504	0	0	532	39	5	
6	0	0	0	0	499	0	0	536	39	5	
7	0	0	0	0	499	435	0	536	39	5	
8	0	0	0	0	499	1022	0	529	38	5	
9	0	0	0	0	495	1023	0	534	38	6	
10	0	0	0	0	503	1023	0	525	39	6	
11	0	0	0	0	498	1023	0	529	38	6	
12	0	0	0	0	508	1022	0	530	39	6	
13	0	0	0	0	512	1022	0	527	39	5	
14	0	0	0	0	505	164	0	535	39	5	
15	0	0	0	0	511	0	0	527	39	5	
0	0	0	0	0	503	0	0	527	39	5	
1	0	0	0	0	506	0	0	524	39	6	
2	0	0	0	0	506	0	0	521	39	6	
3	0	0	0	0	504	0	0	534	38	6	
4	0	0	0	0	507	0	0	533	39	6	
5	0	0	0	0	501	0	0	541	39	6	
6	0	0	0	0	502	0	0	550	39	5	
7	0	0	0	0	502	33	0	542	39	5	
8	0	0	0	0	493	638	0	550	39	5	
9	0	0	0	0	502	1022	0	538	39	6	
10	0	0	0	0	499	1022	0	519	39	6	
11	0	0	0	0	497	1022	0	502	38	6	
12	0	0	0	0	506	1023	0	487	39	6	
13	0	0	0	0	510	1023	0	478	39	6	
14	0	0	0	0	513	732	0	471	39	5	
15	0	0	0	0	504	0	0	462	39	5	
0	0	0	0	0	504	0	0	455	39	5	
1	0	0	0	0	506	0	0	451	39	5	
2	0	0	0	0	499	0	0	451	39	6	
3	0	0	0	0	500	0	0	452	38	6	
4	0	0	0	0	504	0	0	454	39	6	
5	0	0	0	0	503	0	0	455	39	6	
6	0	0	0	0	503	0	0	457	39	5	
7	0	0	0	0	496	0	0	457	39	5	
8	0	0	0	0	504	250	0	453	39	5	
9	0	0	0	0	502	892	0	455	39	5	
10	0	0	0	0	499	1022	0	452	39	6	
11	0	0	0	0	491	1022	0	455	39	6	
12	0	0	0	0	506	1023	0	459	39	6	
13	0	0	0	0	499	1023	0	463	39	6	
14	0	0	0	0	512	1023	0	467	39	6	
15	0	0	0	0	508	464	0	469	39	5	
0	0	0	0	0	506	0	0	465	39	5	
1	0	0	0	0	506	0	0	465	39	5	
2	0	0	0	0	496	0	0	465	39	6	
3	0	0	0	0	506	0	0	468	39	6	
4	0	0	0	0	495	0	0	467	39	6	
5	0	0	0	0	501	0	0	468	39	6	
6	0	0	0	0	503	0	0	471	39	6	
7	0	0	0	0	504	0	0	472	39	5	
8	0	0	0	0	508	0	0	465	39	5	
9	0	0	0	0	502	433	0	466	39	5	
10	0	0	0	0	505	1022	0	465	39	5	
11	0	0	0	0	501	1023	0	469	38	6	
12	0	0	0	0	496	1022	0	470	39	6	
13	0	0	0	0	504	1023	0	467	39	6	
14	0	0	0	0	510	1022	0	467	39	6	
15	0	0	0	0	511	1022	0	471	39	6	
0	0	0	0	0	504	211	0	491	39	5	
1	0	0	0	0	510	0	0	497	39	5	
2	0	0	0	0	508	0	0	515	39	5	
3	0	0	0	0	503	0	0	529	38	6	
4	0	0	0	0	499	0	0	535	39	6	
5	0	0	0	0	500	0	0	550	39	6	
6	0	0	0	0	502	0	0	548	39	6	
7	0	0	0	0	501	0	0	552	39	6	
8	0	0	0	0	504	0	0	551	39	5	
9	0	0	0	0	506	38	0	563	39	5	
10	0	0	0	0	496	641	0	554	39	5	
11	0	0	0	0	504	1023	0	550	39	6	
12	0	0	0	0	498	1023	0	554	39	6	
13	0	0	0	0	502	1022	0	553	39	6	
14	0	0	0	0	504	1023	0	547	39	6	
15	0	0	0	0	510	1023	0	555	39	6	
0	0	0	0	0	513	762	0	551	39	6	
1	0	0	0	0	502	0	0	555	39	5	
2	0	0	0	0	506	0	0	553	39	5	
3	0	0	0	0	503	0	0	548	39	5	
4	0	0	0	0	497	0	0	555	39	6	
5	0	0	0	0	506	0	0	547	39	6	
6	0	0	0	0	505	0	0	549	39	6	
7	0	0	0	0	498	0	0	552	39	6	
8	0	0	0	0	504	0	0	548	39	6	
9	0	0	0	0	498	0	0	556	39	5	
10	0	0	0	0	496	230	0	551	39	5	
11	0	0	0	0	503	842	0	556	39	5	
12	0	0	0	0	500	1022	0	559	39	6	
13	0	0	0	0	500	1023	0	555	39	6	
14	0	0	0	0	503	1023	0	559	39	6	
15	0	0	0	0	511	1023	0	545	39	6	
0	0	0	0	0	507	1022	0	544	39	6	
1	0	0	0	0	513	529	0	542	39	6	
2	0	0	0	0	508	0	0	537	39	5	
3	0	0	0	0	502	0	0	532	39	5	
4	0	0	0	0	498	0	0	529	39	6	
5	0	0	0	0	499	0	0	528	39	6	
6	0	0	0	0	498	0	0	518	39	6	
7	0	0	0	0	504	0	0	504	39	6	
8	0	0	0	0	500	0	0	495	39	6	
9	0	0	0	0	498	0	0	486	39	6	
10	0	0	0	0	502	0	0	478	39	5	
11	0	0	0	0	500	359	0	491	38	5	
12	0	0	0	0	499	1022	0	470	39	6	
13	0	0	0	0	501	1022	0	471	39	6	
14	0	0	0	0	502	1023	0	471	39	6	
15	0	0	0	0	509	1023	0	468	39	6	
0	0	0	0	0	511	1022	0	466	39	6	
1	0	0	0	0	511	1022	0	459	39	6	
2	0	0	0	0	508	188	0	463	39	6	
3	0	0	0	0	512	0	0	465	39	5	
4	0	0	0	0	499	0	0	466	39	6	
5	0	0	0	0	504	0	0	470	39	6	
6	0	0	0	0	504	0	0	470	39	6	
7	0	0	0	0	499	0	0	471	39	6	
8	0	0	0	0	497	0	0	468	39	6	
9	0	0	0	0	502	0	0	465	39	6	
10	0	0	0	0	505	0	0	467	39	6	
11	0	0	0	0	500	0	0	466	39	5	
12	0	0	0	0	503	592	0	473	39	6	
13	0	0	0	0	503	1022	0	497	39	6	
14	0	0	0	0	503	1023	0	512	39	6	
15	0	0	0	0	497	1022	0	523	39	6	
0	0	0	0	0	504	1022	0	536	39	6	
1	0	0	0	0	512	1022	0	535	39	6	
2	0	0	0	0	508	761	0	546	39	6	
3	0	0	0	0	502	0	0	550	39	6	
4	0	0	0	0	510	0	0	550	39	6	
5	0	0	0	0	504	0	0	557	39	6	
6	0	0	0	0	503	0	0	551	39	6	
7	0	0	0	0	500	0	0	554	39	6	
8	0	0	0	0	506	0	0	550	39	6	
9	0	0	0	0	498	0	0	545	39	6	
10	0	0	0	0	507	0	0	550	39	6	
11	0	0	0	0	509	0	0	546	39	6	
12	0	0	0	0	503	150	0	553	39	5	
13	0	0	0	0	503	812	0	553	39	6	
14	0	0	0	0	498	1023	0	552	39	6	
15	0	0	0	0	501	1022	0	557	39	6	
0	0	0	0	0	502	1022	0	549	39	6	
1	0	0	0	0	508	1023	0	542	39	6	
2	0	0	0	0	512	1023	0	536	39	6	
3	0	0	0	0	505	457	0	533	38	6	
4	0	0	0	0	508	0	0	523	39	5	
5	0	0	0	0	508	0	0	516	39	6	
6	0	0	0	0	504	0	0	512	39	6	
7	0	0	0	0	511	0	0	502	39	6	
8	0	0	0	0	494	0	0	494	39	6	
9	0	0	0	0	496	0	0	483	39	6	
10	0	0	0	0	501	0	0	477	39	6	
11	0	0	0	0	503	0	0	473	38	6	
12	0	0	0	0	501	0	0	471	39	5	
13	0	0	0	0	503	401	0	479	39	5	
14	0	0	0	0	506	1022	0	469	39	6	
15	0	0	0	0	500	1022	0	470	39	6	
0	0	0	0	0	503	1023	0	466	39	6	
1	0	0	0	0	499	1022	0	464	39	6	
2	0	0	0	0	505	1022	0	464	39	6	
3	0	0	0	0	510	1022	0	466	39	6	
4	0	0	0	0	509	298	0	470	39	6	
5	0	0	0	0	508	0	0	472	39	5	
6	0	0	0	0	504	0	0	472	39	5	
7	0	0	0	0	503	0	0	472	39	6	
8	0	0	0	0	509	0	0	471	39	6	
9	0	0	0	0	503	0	0	467	39	6	
10	0	0	0	0	495	0	0	465	39	6	
11	0	0	0	0	503	0	0	467	38	6	
12	0	0	0	0	498	0	0	467	39	6	
13	0	0	0	0	498	25	0	467	39	5	
14	0	0	0	0	496	732	0	478	39	5	
15	0	0	0	0	503	1023	0	498	39	6	
0	0	0	0	0	498	1023	0	508	39	6	
1	0	0	0	0	510	1023	0	519	39	6	
2	0	0	0	0	503	1022	0	534	39	6	
3	0	0	0	0	507	1022	0	536	39	6	
4	0	0	0	0	510	932	0	550	39	6	
5	0	0	0	0	514	71	0	551	39	5	
6	0	0	0	0	503	0	0	551	39	5	
7	0	0	0	0	499	0	0	557	39	5	
8	0	0	0	0	497	0	0	549	39	6	
9	0	0	0	0	500	0	0	556	39	6	
10	0	0	0	0	508	0	0	553	39	6	
11	0	0	0	0	502	0	0	552	39	6	
12	0	0	0	0	500	0	0	557	39	6	
13	0	0	0	0	503	0	0	548	39	5	
14	0	0	0	0	500	296	0	552	39	5	
15	0	0	0	0	499	986	0	547	39	5	
0	0	0	0	0	502	1022	0	538	39	6	
1	0	0	0	0	506	1023	0	533	39	6	
2	0	0	0	0	503	1022	0	530	39	6	
3	0	0	0	0	501	1023	0	528	39	6	
4	0	0	0	0	508	1022	0	516	39	6	
5	0	0	0	0	508	606	0	503	39	5	
6	0	0	0	0	509	0	0	491	39	5	
7	0	0	0	0	504	0	0	487	39	5	
8	0	0	0	0	500	0	0	490	39	6	
9	0	0	0	0	497	0	0	486	39	6	
10	0	0	0	0	509	0	0	482	39	6	
11	0	0	0	0	512	0	0	476	39	6	
12	0	0	0	0	499	0	0	474	39	6	
13	0	0	0	0	499	0	0	471	39	5	
14	0	0	0	0	502	0	0	467	39	5	
15	0	0	0	0	497	515	0	466	39	5	
0	0	0	0	0	501	1022	0	460	39	5	
1	0	0	0	0	499	1023	0	459	39	6	
2	0	0	0	0	500	1023	0	457	39	6	
3	0	0	0	0	499	1023	0	462	39	6	
4	0	0	0	0	509	1022	0	462	39	6	
5	0	0	0	0	511	1022	0	461	39	5	
6	0	0	0	0	501	359	0	466	39	5	
7	0	0	0	0	504	0	0	466	39	5	
8	0	0	0	0	504	0	0	465	39	5	
9	0	0	0	0	508	0	0	464	39	6	
10	0	0	0	0	505	0	0	461	39	6	
11	0	0	0	0	501	0	0	467	39	6	
12	0	0	0	0	499	0	0	467	39	6	
13	0	0	0	0	504	0	0	468	39	5	
14	0	0	0	0	503	0	0	471	39	5	
15	0	0	0	0	497	142	0	468	39	5	
0	0	0	0	0	503	804	0	473	39	5	
1	0	0	0	0	500	1023	0	493	39	6	
2	0	0	0	0	505	1023	0	509	39	5	
3	0	0	0	0	504	1023	0	524	38	6	
4	0	0	0	0	500	1023	0	538	39	6	
5	0	0	0	0	512	1022	0	540	39	5	
6	0	0	0	0	512	1021	0	551	39	5	
7	0	0	0	0	505	163	0	552	39	5	
8	0	0	0	0	507	0	0	552	39	5	
9	0	0	0	0	498	0	0	554	39	5	
10	0	0	0	0	505	0	0	547	39	6	
11	0	0	0	0	499	0	0	556	38	5	
12	0	0	0	0	500	0	0	553	39	6	
13	0	0	0	0	505	0	0	548	39	6	
14	0	0	0	0	503	0	0	544	39	5	
15	0	0	0	0	501	0	0	556	39	5	
0	0	0	0	0	491	403	0	555	39	5	
1	0	0	0	0	498	1018	0	551	39	5	
2	0	0	0	0	499	1022	0	547	39	6	
3	0	0	0	0	494	1023	0	541	39	5	
4	0	0	0	0	504	1023	0	536	39	6	
5	0	0	0	0	510	1023	0	523	39	6	
6	0	0	0	0	510	1023	0	510	39	5	
7	0	0	0	0	517	632	0	501	39	5	
8	0	0	0	0	505	0	0	492	39	5	
9	0	0	0	0	504	0	0	491	39	5	
10	0	0	0	0	504	0	0	510	39	6	
11	0	0	0	0	504	0	0	521	39	5	
12	0	0	0	0	499	0	0	529	39	6	
13	0	0	0	0	499	0	0	536	39	6	
14	0	0	0	0	499	0	0	555	39	5	
15	0	0	0	0	507	0	0	554	39	5	
0	0	0	0	0	503	0	0	551	39	5	
1	0	0	0	0	497	467	0	547	39	5	
2	0	0	0	0	500	1022	0	543	39	5	
3	0	0	0	0	498	1023	0	535	39	6	
4	0	0	0	0	505	1023	0	521	39	6	
5	0	0	0	0	505	1023	0	506	39	6	
6	0	0	0	0	508	1023	0	497	39	6	
7	0	0	0	0	512	1023	0	491	39	5	
8	0	0	0	0	505	272	0	484	39	5	
9	0	0	0	0	506	0	0	478	39	5	
10	0	0	0	0	508	0	0	472	39	5	
11	0	0	0	0	502	0	0	473	38	6	
12	0	0	0	0	499	0	0	474	39	5	
13	0	0	0	0	500	0	0	475	39	6	
14	0	0	0	0	498	0	0	477	39	6	
15	0	0	0	0	500	0	0	474	39	5	
0	0	0	0	0	502	0	0	471	39	5	
1	0	0	0	0	505	0	0	467	39	5	
2	0	0	0	0	504	605	0	474	39	5	
3	0	0	0	0	499	1022	0	498	39	6	
4	0	0	0	0	500	1023	0	513	39	5	
5	0	0	0	0	501	1022	0	527	39	6	
6	0	0	0	0	496	1022	0	544	39	6	
7	0	0	0	0	513	1022	0	542	39	5	
8	0	0	0	0	511	867	0	552	39	5	
9	0	0	0	0	503	23	0	552	39	5	
10	0	0	0	0	502	0	0	540	39	5	
11	0	0	0	0	505	0	0	525	39	5	
12	0	0	0	0	504	0	0	511	39	6	
13	0	0	0	0	501	0	0	501	39	5	
14	0	0	0	0	499	0	0	493	39	6	
15	0	0	0	0	502	0	0	488	39	6	
0	0	0	0	0	507	0	0	497	39	5	
1	0	0	0	0	502	0	0	474	39	5	
2	0	0	0	0	498	224	0	473	39	5	
3	0	0	0	0	497	866	0	473	39	5	
4	0	0	0	0	502	1022	0	477	39	6	
5	0	0	0	0	503	1023	0	480	39	5	
6	0	0	0	0	502	1023	0	481	39	6	
7	0	0	0	0	507	1023	0	481	39	6	
8	0	0	0	0	511	1022	0	478	39	5	
9	0	0	0	0	510	575	0	479	39	5	
10	0	0	0	0	510	0	0	479	39	5	
11	0	0	0	0	503	0	0	486	38	5	
12	0	0	0	0	503	0	0	512	39	6	
13	0	0	0	0	502	0	0	527	39	5	
14	0	0	0	0	502	0	0	524	39	6	
15	0	0	0	0	504	0	0	512	39	6	
0	0	0	0	0	507	0	0	501	39	5	
1	0	0	0	0	502	0	0	491	39	5	
2	0	0	0	0	497	0	0	482	39	5	
3	0	0	0	0	497	521	0	494	38	5	
4	0	0	0	0	495	1022	0	518	39	5	
5	0	0	0	0	506	1022	0	528	39	6	
6	0	0	0	0	504	1022	0	544	39	5	
7	0	0	0	0	499	1022	0	545	39	6	
8	0	0	0	0	503	1022	0	532	39	6	
9	0	0	0	0	512	1023	0	515	39	5	
10	0	0	0	0	515	440	0	506	39	5	
11	0	0	0	0	510	0	0	500	39	5	
12	0	0	0	0	496	0	0	512	39	5	
13	0	0	0	0	498	0	0	527	39	6	
14	0	0	0	0	500	0	0	525	39	5	
15	0	0	0	0	493	0	0	524	39	6	
0	0	0	0	0	512	0	0	539	39	6	
1	0	0	0	0	502	0	0	545	39	5	
2	0	0	0	0	502	0	0	554	39	5	
3	0	0	0	0	499	102	0	568	39	5	
4	0	0	0	0	506	760	0	561	39	5	
5	0	0	0	0	497	1023	0	548	39	6	
6	0	0	0	0	498	1023	0	550	39	5	
7	0	0	0	0	502	1022	0	550	39	6	
8	0	0	0	0	502	1022	0	536	39	5	
9	0	0	0	0	510	1022	0	518	39	5	
10	0	0	0	0	513	1022	0	504	39	5	
11	0	0	0	0	503	199	0	496	39	5	
12	0	0	0	0	503	0	0	490	39	5	
13	0	0	0	0	507	0	0	486	39	5	
14	0	0	0	0	503	0	0	491	39	6	
15	0	0	0	0	497	0	0	515	39	5	
0	0	0	0	0	499	0	0	525	39	6	
1	0	0	0	0	504	0	0	521	39	5	
2	0	0	0	0	497	0	0	510	39	5	
3	0	0	0	0	504	0	0	504	39	5	
4	0	0	0	0	501	403	0	497	39	5	
5	0	0	0	0	506	1022	0	492	39	5	
6	0	0	0	0	493	1023	0	504	39	6	
7	0	0	0	0	502	1022	0	526	39	5	
8	0	0	0	0	499	1022	0	529	39	5	
9	0	0	0	0	508	1023	0	522	39	5	
10	0	0	0	0	507	1022	0	512	39	5	
11	0	0	0	0	506	818	0	503	39	5	
12	0	0	0	0	504	6	0	497	39	5	
13	0	0	0	0	504	0	0	496	39	5	
14	0	0	0	0	503	0	0	514	39	6	
15	0	0	0	0	499	0	0	521	39	5	
0	0	0	0	0	502	0	0	529	39	5	
1	0	0	0	0	500	0	0	541	39	5	
2	0	0	0	0	502	0	0	542	39	5	
3	0	0	0	0	508	0	0	554	38	5	
4	0	0	0	0	506	0	0	557	39	5	
5	0	0	0	0	504	573	0	560	39	5	
6	0	0	0	0	502	1022	0	569	39	5	
7	0	0	0	0	507	1022	0	569	39	6	
8	0	0	0	0	493	1022	0	563	39	5	
9	0	0	0	0	499	1023	0	555	39	5	
10	0	0	0	0	511	1023	0	551	39	5	
11	0	0	0	0	510	1022	0	558	39	5	
12	0	0	0	0	502	374	0	552	39	5	
13	0	0	0	0	503	0	0	559	39	5	
14	0	0	0	0	508	0	0	560	39	5	
15	0	0	0	0	501	0	0	560	39	6	
0	0	0	0	0	504	0	0	563	39	5	
1	0	0	0	0	499	0	0	550	39	5	
2	0	0	0	0	507	0	0	528	39	5	
3	0	0	0	0	504	0	0	510	39	5	
4	0	0	0	0	500	0	0	498	39	5	
5	0	0	0	0	498	0	0	496	39	5	
6	0	0	0	0	495	540	0	500	39	5	
7	0	0	0	0	496	1022	0	508	39	6	
8	0	0	0	0	499	1022	0	522	39	5	
9	0	0	0	0	507	1022	0	531	39	5	
10	0	0	0	0	503	1022	0	535	39	5	
11	0	0	0	0	513	1023	0	549	39	5	
12	0	0	0	0	510	824	0	551	39	5	
13	0	0	0	0	502	0	0	547	39	5	
14	0	0	0	0	503	0	0	550	39	5	
15	0	0	0	0	508	0	0	574	39	5	
0	0	0	0	0	507	0	0	551	39	6	
1	0	0	0	0	505	0	0	544	39	5	
2	0	0	0	0	507	0	0	538	39	5	
3	0	0	0	0	502	0	0	533	38	5	
4	0	0	0	0	503	0	0	522	39	5	
5	0	0	0	0	495	0	0	511	39	5	
6	0	0	0	0	498	0	0	496	39	5	
7	0	0	0	0	497	665	0	487	39	5	
8	0	0	0	0	501	1022	0	478	39	6	
9	0	0	0	0	503	1022	0	471	39	5	
10	0	0	0	0	503	1022	0	483	39	5	
11	0	0	0	0	507	1023	0	467	38	5	
12	0	0	0	0	509	1023	0	465	39	5	
13	0	0	0	0	511	431	0	465	39	5	
14	0	0	0	0	515	0	0	464	39	5	
15	0	0	0	0	504	0	0	471	39	5	
0	0	0	0	0	504	0	0	488	39	6	
1	0	0	0	0	504	0	0	496	39	5	
2	0	0	0	0	499	0	0	508	39	5	
3	0	0	0	0	502	0	0	523	39	5	
4	0	0	0	0	507	0	0	529	39	5	
5	0	0	0	0	504	0	0	537	39	5	
6	0	0	0	0	498	0	0	533	39	5	
7	0	0	0	0	504	262	0	532	39	5	
8	0	0	0	0	496	931	0	536	39	5	
9	0	0	0	0	498	1022	0	526	39	6	
10	0	0	0	0	496	1023	0	518	39	5	
11	0	0	0	0	499	1023	0	516	38	5	
12	0	0	0	0	516	1022	0	515	39	5	
13	0	0	0	0	511	1023	0	515	39	5	
14	0	0	0	0	499	219	0	511	39	5	
15	0	0	0	0	504	0	0	500	39	5	
0	0	0	0	0	506	0	0	488	39	5	
1	0	0	0	0	504	0	0	478	39	6	
2	0	0	0	0	502	0	0	469	39	5	
3	0	0	0	0	491	0	0	467	39	5	
4	0	0	0	0	497	0	0	465	39	5	
5	0	0	0	0	512	0	0	463	39	5	
6	0	0	0	0	509	0	0	462	39	5	
7	0	0	0	0	503	0	0	460	39	5	
8	0	0	0	0	498	439	0	460	39	5	
9	0	0	0	0	498	1022	0	481	39	6	
10	0	0	0	0	508	1023	0	497	39	5	
11	0	0	0	0	501	1023	0	512	39	5	
12	0	0	0	0	505	1022	0	529	39	5	
13	0	0	0	0	510	1022	0	548	39	5	
14	0	0	0	0	511	752	0	538	39	5	
15	0	0	0	0	508	0	0	537	39	5	
0	0	0	0	0	503	0	0	530	39	5	
1	0	0	0	0	502	0	0	526	39	5	
2	0	0	0	0	508	0	0	524	39	6	
3	0	0	0	0	500	0	0	519	39	5	
4	0	0	0	0	500	0	0	506	39	5	
5	0	0	0	0	504	0	0	496	39	5	
6	0	0	0	0	499	0	0	485	39	5	
7	0	0	0	0	504	0	0	479	39	5	
8	0	0	0	0	493	80	0	465	39	5	
9	0	0	0	0	502	718	0	462	39	5	
10	0	0	0	0	494	1022	0	457	39	6	
11	0	0	0	0	496	1022	0	458	39	5	
12	0	0	0	0	501	1023	0	458	39	5	
13	0	0	0	0	508	1023	0	459	39	5	
14	0	0	0	0	512	1022	0	459	39	5	
15	0	0	0	0	510	549	0	457	39	5	
0	0	0	0	0	505	0	0	456	39	5	
1	0	0	0	0	504	0	0	457	39	5	
2	0	0	0	0	508	0	0	482	39	6	
3	0	0	0	0	503	0	0	499	39	5	
4	0	0	0	0	499	0	0	516	39	5	
5	0	0	0	0	496	0	0	532	39	5	
6	0	0	0	0	500	0	0	532	39	5	
7	0	0	0	0	506	0	0	544	39	5	
8	0	0	0	0	504	0	0	544	39	5	
9	0	0	0	0	501	344	0	540	39	5	
10	0	0	0	0	502	1016	0	536	39	5	
11	0	0	0	0	501	1022	0	531	39	6	
12	0	0	0	0	502	1023	0	523	39	5	
13	0	0	0	0	504	1023	0	508	39	5	
14	0	0	0	0	506	1022	0	495	39	5	
15	0	0	0	0	515	1022	0	483	39	5	
0	0	0	0	0	507	350	0	473	39	5	
1	0	0	0	0	509	0	0	465	39	5	
2	0	0	0	0	505	0	0	461	39	5	
3	0	0	0	0	501	0	0	460	38	6	
4	0	0	0	0	499	0	0	460	39	5	
5	0	0	0	0	498	0	0	465	39	5	
6	0	0	0	0	505	0	0	467	39	5	
7	0	0	0	0	498	0	0	463	39	5	
8	0	0	0	0	499	0	0	462	39	5	
9	0	0	0	0	497	0	0	458	39	5	
10	0	0	0	0	505	585	0	462	39	5	
11	0	0	0	0	501	1023	0	463	39	6	
12	0	0	0	0	496	1022	0	482	39	5	
13	0	0	0	0	500	1022	0	500	39	5	
14	0	0	0	0	505	1023	0	512	39	5	
15	0	0	0	0	511	1023	0	531	39	5	
0	0	0	0	0	513	1020	0	531	39	5	
1	0	0	0	0	504	65	0	540	39	5	
2	0	0	0	0	503	0	0	545	39	5	
3	0	0	0	0	509	0	0	544	39	5	
4	0	0	0	0	499	0	0	556	39	6	
5	0	0	0	0	499	0	0	552	39	5	
6	0	0	0	0	498	0	0	558	39	5	
7	0	0	0	0	505	0	0	558	39	5	
8	0	0	0	0	506	0	0	550	39	5	
9	0	0	0	0	506	0	0	544	39	5	
10	0	0	0	0	502	112	0	537	39	5	
11	0	0	0	0	503	818	0	533	39	5	
12	0	0	0	0	498	1022	0	522	39	6	
13	0	0	0	0	498	1023	0	510	39	5	
14	0	0	0	0	502	1023	0	502	39	5	
15	0	0	0	0	502	1023	0	493	39	5	
0	0	0	0	0	515	1022	0	488	39	5	
1	0	0	0	0	504	585	0	482	39	5	
2	0	0	0	0	504	0	0	478	39	5	
3	0	0	0	0	511	0	0	479	39	5	
4	0	0	0	0	504	0	0	502	39	6	
5	0	0	0	0	505	0	0	517	39	5	
6	0	0	0	0	499	0	0	528	39	5	
7	0	0	0	0	497	0	0	538	39	5	
8	0	0	0	0	501	0	0	534	39	5	
9	0	0	0	0	506	0	0	543	39	5	
10	0	0	0	0	499	0	0	546	39	5	
11	0	0	0	0	495	335	0	548	39	5	
12	0	0	0	0	502	1014	0	557	39	5	
13	0	0	0	0	504	1022	0	550	39	6	
14	0	0	0	0	497	1023	0	557	39	5	
15	0	0	0	0	506	1023	0	550	39	5	
0	0	0	0	0	509	1022	0	540	39	5	
1	0	0	0	0	509	1023	0	535	39	5	
2	0	0	0	0	502	354	0	528	39	5	
3	0	0	0	0	502	0	0	523	39	5	
4	0	0	0	0	512	0	0	511	39	5	
5	0	0	0	0	508	0	0	499	39	6	
6	0	0	0	0	502	0	0	506	39	5	
7	0	0	0	0	497	0	0	483	39	5	
8	0	0	0	0	512	0	0	478	39	5	
9	0	0	0	0	508	0	0	471	39	5	
10	0	0	0	0	501	0	0	467	39	5	
11	0	0	0	0	496	0	0	466	39	5	
12	0	0	0	0	491	564	0	472	39	5	
13	0	0	0	0	504	1023	0	495	39	6	
14	0	0	0	0	507	1023	0	509	39	5	
15	0	0	0	0	500	1022	0	522	39	5	
0	0	0	0	0	498	1022	0	535	39	5	
1	0	0	0	0	516	1022	0	532	39	5	
2	0	0	0	0	512	1022	0	542	39	5	
3	0	0	0	0	505	76	0	541	39	5	
4	0	0	0	0	503	0	0	538	39	5	
5	0	0	0	0	507	0	0	536	39	5	
6	0	0	0	0	503	0	0	549	39	6	
7	0	0	0	0	491	0	0	545	39	5	
8	0	0	0	0	504	0	0	542	39	5	
9	0	0	0	0	501	0	0	537	39	5	
10	0	0	0	0	502	0	0	534	39	5	
11	0	0	0	0	502	0	0	532	38	5	
12	0	0	0	0	504	136	0	526	39	5	
13	0	0	0	0	505	799	0	514	39	5	
14	0	0	0	0	500	1022	0	504	39	6	
15	0	0	0	0	495	1022	0	494	39	5	
0	0	0	0	0	502	1022	0	489	39	5	
1	0	0	0	0	507	1023	0	480	39	5	
2	0	0	0	0	514	1023	0	476	39	5	
3	0	0	0	0	509	701	0	475	38	5	
4	0	0	0	0	503	0	0	473	39	5	
5	0	0	0	0	505	0	0	478	39	5	
6	0	0	0	0	507	0	0	499	39	6	
7	0	0	0	0	505	0	0	508	39	5	
8	0	0	0	0	493	0	0	517	39	5	
9	0	0	0	0	496	0	0	526	39	5	
10	0	0	0	0	505	0	0	526	39	5	
11	0	0	0	0	505	0	0	536	39	5	
12	0	0	0	0	507	0	0	536	39	5	
13	0	0	0	0	498	352	0	539	39	5	
14	0	0	0	0	501	1022	0	547	39	5	
15	0	0	0	0	506	1022	0	541	39	6	
0	0	0	0	0	490	1022	0	547	39	5	
1	0	0	0	0	506	1023	0	545	39	5	
2	0	0	0	0	508	1022	0	540	39	5	
3	0	0	0	0	511	1023	0	535	38	5	
4	0	0	0	0	510	389	0	531	39	5	
5	0	0	0	0	503	0	0	524	39	5	
6	0	0	0	0	507	0	0	511	39	5	
7	0	0	0	0	501	0	0	499	39	6	
8	0	0	0	0	500	0	0	486	39	5	
9	0	0	0	0	498	0	0	479	39	5	
10	0	0	0	0	501	0	0	469	39	5	
11	0	0	0	0	501	0	0	465	39	5	
12	0	0	0	0	504	0	0	463	39	5	
13	0	0	0	0	501	0	0	461	39	5	
14	0	0	0	0	511	594	0	470	39	5	
15	0	0	0	0	504	1022	0	486	39	6	
0	0	0	0	0	504	1022	0	494	39	5	
1	0	0	0	0	496	1022	0	490	39	5	
2	0	0	0	0	505	1023	0	483	39	5	
3	0	0	0	0	510	1023	0	476	39	5	
4	0	0	0	0	504	1022	0	471	39	5	
5	0	0	0	0	509	178	0	487	39	5	
6	0	0	0	0	497	0	0	506	39	5	
7	0	0	0	0	500	0	0	515	39	5	
8	0	0	0	0	498	0	0	532	39	6	
9	0	0	0	0	498	0	0	527	39	5	
10	0	0	0	0	507	0	0	523	39	5	
11	0	0	0	0	503	0	0	521	38	5	
12	0	0	0	0	507	0	0	519	39	5	
13	0	0	0	0	499	0	0	517	39	5	
14	0	0	0	0	504	133	0	504	39	5	
15	0	0	0	0	502	825	0	495	39	5	
0	0	0	0	0	503	1022	0	484	39	6	
1	0	0	0	0	491	1023	0	472	39	5	
2	0	0	0	0	495	1022	0	471	39	5	
3	0	0	0	0	509	1023	0	467	38	5	
4	0	0	0	0	519	1023	0	467	39	5	
5	0	0	0	0	520	694	0	468	39	5	
6	0	0	0	0	503	0	0	466	39	5	
7	0	0	0	0	508	0	0	474	39	5	
8	0	0	0	0	504	0	0	492	39	6	
9	0	0	0	0	508	0	0	504	39	5	
10	0	0	0	0	500	0	0	516	39	5	
11	0	0	0	0	500	0	0	535	39	5	
12	0	0	0	0	498	0	0	537	39	5	
13	0	0	0	0	502	0	0	536	39	5	
14	0	0	0	0	501	0	0	546	39	5	
15	0	0	0	0	498	354	0	550	39	5	
0	0	0	0	0	497	1022	0	545	39	5	
1	0	0	0	0	499	1022	0	539	39	6	
2	0	0	0	0	501	1023	0	534	39	5	
3	0	0	0	0	510	1022	0	528	38	5	
4	0	0	0	0	508	1022	0	517	39	5	
5	0	0	0	0	511	1022	0	505	39	5	
6	0	0	0	0	507	422	0	495	39	5	
7	0	0	0	0	507	0	0	486	39	5	
8	0	0	0	0	507	0	0	474	39	5	
9	0	0	0	0	504	0	0	470	39	6	
10	0	0	0	0	502	0	0	467	39	5	
11	0	0	0	0	500	0	0	468	39	5	
12	0	0	0	0	497	0	0	468	39	5	
13	0	0	0	0	507	0	0	468	39	5	
14	0	0	0	0	504	0	0	468	39	5	
15	0	0	0	0	498	0	0	466	39	5	
0	0	0	0	0	502	606	0	470	39	5	
1	0	0	0	0	499	1022	0	502	39	6	
2	0	0	0	0	498	1023	0	506	39	5	
3	0	0	0	0	504	1022	0	522	39	5	
4	0	0	0	0	500	1023	0	540	39	5	
5	0	0	0	0	508	1022	0	543	39	5	
6	0	0	0	0	514	1022	0	551	39	5	
7	0	0	0	0	510	188	0	548	39	5	
8	0	0	0	0	504	0	0	544	39	5	
9	0	0	0	0	502	0	0	547	39	5	
10	0	0	0	0	501	0	0	541	39	6	
11	0	0	0	0	494	0	0	549	39	5	
12	0	0	0	0	504	0	0	548	39	5	
13	0	0	0	0	504	0	0	546	39	5	
14	0	0	0	0	508	0	0	554	39	5	
15	0	0	0	0	507	0	0	550	39	5	
0	0	0	0	0	501	105	0	553	39	5	
1	0	0	0	0	505	777	0	548	39	5	
2	0	0	0	0	504	1023	0	547	39	6	
3	0	0	0	0	507	1022	0	555	39	5	
4	0	0	0	0	502	1022	0	552	39	5	
5	0	0	0	0	507	1023	0	562	39	5	
6	0	0	0	0	517	1023	0	560	39	5	
7	0	0	0	0	512	745	0	560	39	5	
8	0	0	0	0	496	0	0	566	39	5	
9	0	0	0	0	499	0	0	553	39	5	
10	0	0	0	0	513	0	0	533	39	6	
11	0	0	0	0	496	0	0	515	39	5	
12	0	0	0	0	495	0	0	503	39	5	
13	0	0	0	0	500	0	0	492	39	5	
14	0	0	0	0	504	0	0	500	39	5	
15	0	0	0	0	499	0	0	479	39	5	
0	0	0	0	0	503	0	0	472	39	5	
1	0	0	0	0	495	353	0	469	39	5	
2	0	0	0	0	504	980	0	468	39	5	
3	0	0	0	0	502	1022	0	473	39	6	
4	0	0	0	0	498	1023	0	473	39	5	
5	0	0	0	0	510	1023	0	474	39	5	
6	0	0	0	0	507	1022	0	477	39	5	
7	0	0	0	0	516	1023	0	475	39	5	
8	0	0	0	0	511	432	0	475	39	5	
9	0	0	0	0	504	0	0	470	39	5	
10	0	0	0	0	494	0	0	468	39	5	
11	0	0	0	0	499	0	0	472	39	6	
12	0	0	0	0	499	0	0	481	39	5	
13	0	0	0	0	506	0	0	510	39	5	
14	0	0	0	0	500	0	0	522	39	5	
15	0	0	0	0	504	0	0	515	39	5	
0	0	0	0	0	494	0	0	503	39	5	
1	0	0	0	0	501	0	0	491	39	5	
2	0	0	0	0	499	558	0	483	39	5	
3	0	0	0	0	499	1022	0	480	38	6	
4	0	0	0	0	508	1022	0	476	39	5	
5	0	0	0	0	500	1023	0	478	39	5	
6	0	0	0	0	503	1023	0	478	39	5	
7	0	0	0	0	513	1022	0	476	39	5	
8	0	0	0	0	509	1022	0	473	39	5	
9	0	0	0	0	512	231	0	470	39	5	
10	0	0	0	0	508	0	0	473	39	5	
11	0	0	0	0	506	0	0	475	39	5	
12	0	0	0	0	503	0	0	479	39	6	
13	0	0	0	0	504	0	0	482	39	5	
14	0	0	0	0	497	0	0	483	39	5	
15	0	0	0	0	505	0	0	482	39	5	
0	0	0	0	0	502	0	0	478	39	5	
1	0	0	0	0	508	0	0	477	39	5	
2	0	0	0	0	501	124	0	479	39	5	
3	0	0	0	0	504	763	0	480	39	5	
4	0	0	0	0	498	1022	0	485	39	6	
5	0	0	0	0	496	1023	0	490	39	5	
6	0	0	0	0	497	1022	0	492	39	5	
7	0	0	0	0	500	1023	0	490	39	5	
8	0	0	0	0	504	1023	0	486	39	5	
9	0	0	0	0	510	808	0	484	39	5	
10	0	0	0	0	504	0	0	484	39	5	
11	0	0	0	0	509	0	0	487	39	5	
12	0	0	0	0	510	0	0	488	39	6	
13	0	0	0	0	504	0	0	488	39	5	
14	0	0	0	0	494	0	0	489	39	5	
15	0	0	0	0	504	0	0	486	39	5	
