# OpenSignals Text File Format. Version 1
# {"98:D3:51:FD:71:01": {"position": 0, "device": "bitalino_rev", "device name": "98:D3:51:FD:71:01", "device connection": "BTH98:D3:51:FD:71:01", "sampling rate": 1000, "resolution": [4, 1, 1, 1, 1, 10, 10, 10, 10, 6, 6], "firmware version": 1282, "comments": "", "keywords": "", "mode": 0, "sync interval": 2, "date": "2024-6-28", "time": "9:9:27.959", "channels": [1, 2, 3, 4, 5, 6], "sensor": ["RAW", "ECGBIT", "RAW", "RAW", "RAW", "RAW"], "label": ["A1", "A2", "A3", "A4", "A5", "A6"], "column": ["nSeq", "I1", "I2", "O1", "O2", "A1", "A2", "A3", "A4", "A5", "A6"], "special": [{}, {}, {}, {}, {}, {}], "digital IO": [0, 0, 1, 1]}}
# EndOfHeader
0	0	0	0	0	504	510	0	555	39	9	
1	0	0	0	0	507	507	0	570	38	9	
2	0	0	0	0	506	503	0	551	38	9	
3	0	0	0	0	516	501	0	550	38	9	
4	0	0	0	0	515	501	0	551	38	9	
5	0	0	0	0	503	503	0	546	38	9	
6	0	0	0	0	500	503	0	547	38	9	
7	0	0	0	0	506	501	0	547	38	9	
8	0	0	0	0	505	498	0	538	39	9	
9	0	0	0	0	523	496	0	534	38	9	
10	0	0	0	0	513	497	0	535	38	9	
11	0	0	0	0	510	500	0	532	38	9	
12	0	0	0	0	511	500	0	535	38	9	
13	0	0	0	0	511	500	0	535	38	9	
14	0	0	0	0	504	499	0	535	38	9	
15	0	0	0	0	492	497	0	535	39	9	
0	0	0	0	0	495	496	0	536	39	9	
1	0	0	0	0	499	493	0	552	38	9	
2	0	0	0	0	509	489	0	581	38	9	
3	0	0	0	0	513	493	0	592	38	9	
4	0	0	0	0	518	498	0	589	38	9	
5	0	0	0	0	515	501	0	581	38	9	
6	0	0	0	0	515	505	0	568	38	9	
7	0	0	0	0	507	507	0	559	39	9	
8	0	0	0	0	503	507	0	551	39	9	
9	0	0	0	0	507	503	0	558	38	9	
10	0	0	0	0	516	499	0	584	38	9	
11	0	0	0	0	510	496	0	590	38	9	
12	0	0	0	0	507	497	0	585	38	9	
13	0	0	0	0	502	501	0	575	38	9	
14	0	0	0	0	508	507	0	564	38	9	
15	0	0	0	0	499	508	0	560	38	9	
0	0	0	0	0	501	504	0	576	39	9	
1	0	0	0	0	495	498	0	576	38	9	
2	0	0	0	0	507	493	0	568	38	9	
3	0	0	0	0	511	490	0	568	38	9	
4	0	0	0	0	513	492	0	563	38	9	
5	0	0	0	0	518	497	0	557	38	9	
6	0	0	0	0	507	498	0	548	38	9	
7	0	0	0	0	512	495	0	541	38	9	
8	0	0	0	0	506	491	0	548	39	9	
9	0	0	0	0	504	489	0	535	38	9	
10	0	0	0	0	517	489	0	535	39	9	
11	0	0	0	0	520	492	0	556	38	9	
12	0	0	0	0	513	495	0	571	38	9	
13	0	0	0	0	513	499	0	569	38	9	
14	0	0	0	0	510	503	0	566	38	9	
15	0	0	0	0	500	508	0	582	39	9	
0	0	0	0	0	493	508	0	583	39	9	
1	0	0	0	0	495	504	0	571	38	9	
2	0	0	0	0	509	502	0	559	39	9	
3	0	0	0	0	508	499	0	550	38	9	
4	0	0	0	0	507	498	0	541	38	9	
5	0	0	0	0	507	496	0	536	38	9	
6	0	0	0	0	512	495	0	530	38	9	
7	0	0	0	0	510	497	0	527	39	9	
8	0	0	0	0	512	500	0	530	39	9	
9	0	0	0	0	508	500	0	552	38	9	
10	0	0	0	0	509	499	0	562	39	9	
11	0	0	0	0	513	499	0	559	38	9	
12	0	0	0	0	514	501	0	551	38	9	
13	0	0	0	0	507	502	0	544	38	9	
14	0	0	0	0	513	504	0	539	38	9	
15	0	0	0	0	512	507	0	534	39	9	
0	0	0	0	0	504	510	0	544	39	9	
1	0	0	0	0	494	511	0	559	39	9	
2	0	0	0	0	494	509	0	557	38	9	
3	0	0	0	0	502	505	0	553	38	9	
4	0	0	0	0	502	498	0	556	38	9	
5	0	0	0	0	514	494	0	549	38	9	
6	0	0	0	0	511	491	0	542	38	9	
7	0	0	0	0	515	489	0	536	38	9	
8	0	0	0	0	510	489	0	529	39	9	
9	0	0	0	0	511	489	0	526	39	9	
10	0	0	0	0	507	490	0	540	38	9	
11	0	0	0	0	510	493	0	562	38	9	
12	0	0	0	0	512	499	0	565	38	9	
13	0	0	0	0	512	503	0	559	38	9	
14	0	0	0	0	509	504	0	550	38	9	
15	0	0	0	0	513	503	0	539	38	9	
0	0	0	0	0	504	501	0	543	39	9	
1	0	0	0	0	494	500	0	558	39	9	
2	0	0	0	0	494	499	0	560	38	9	
3	0	0	0	0	501	497	0	568	38	9	
4	0	0	0	0	505	494	0	544	38	9	
5	0	0	0	0	504	494	0	537	38	9	
6	0	0	0	0	508	495	0	534	38	9	
7	0	0	0	0	519	494	0	526	39	9	
8	0	0	0	0	512	494	0	522	39	9	
9	0	0	0	0	510	496	0	518	38	9	
10	0	0	0	0	507	499	0	527	38	9	
11	0	0	0	0	502	500	0	554	38	9	
12	0	0	0	0	508	501	0	557	38	9	
13	0	0	0	0	513	504	0	551	39	9	
14	0	0	0	0	518	508	0	559	38	9	
15	0	0	0	0	509	511	0	568	39	9	
0	0	0	0	0	505	512	0	560	39	9	
1	0	0	0	0	512	511	0	552	38	9	
2	0	0	0	0	491	507	0	551	38	9	
3	0	0	0	0	501	502	0	542	38	9	
4	0	0	0	0	501	501	0	533	38	9	
5	0	0	0	0	508	503	0	526	38	9	
6	0	0	0	0	503	504	0	521	38	9	
7	0	0	0	0	513	502	0	516	39	9	
8	0	0	0	0	513	502	0	510	39	9	
9	0	0	0	0	516	503	0	508	39	9	
10	0	0	0	0	515	503	0	507	39	9	
11	0	0	0	0	513	502	0	506	38	9	
12	0	0	0	0	511	501	0	505	38	9	
13	0	0	0	0	510	502	0	502	38	9	
14	0	0	0	0	511	504	0	515	38	9	
15	0	0	0	0	507	507	0	543	38	9	
0	0	0	0	0	519	509	0	546	39	9	
1	0	0	0	0	506	511	0	563	38	9	
2	0	0	0	0	500	510	0	576	38	9	
3	0	0	0	0	491	508	0	568	38	9	
4	0	0	0	0	499	504	0	555	38	9	
5	0	0	0	0	504	501	0	540	38	9	
6	0	0	0	0	507	502	0	528	38	9	
7	0	0	0	0	505	501	0	519	39	9	
8	0	0	0	0	510	500	0	523	39	9	
9	0	0	0	0	514	500	0	539	38	9	
10	0	0	0	0	505	500	0	557	38	9	
11	0	0	0	0	507	500	0	534	38	9	
12	0	0	0	0	504	503	0	527	38	9	
13	0	0	0	0	515	505	0	521	38	9	
14	0	0	0	0	519	506	0	512	38	9	
15	0	0	0	0	506	507	0	508	38	9	
0	0	0	0	0	512	508	0	507	39	9	
1	0	0	0	0	512	511	0	499	38	9	
2	0	0	0	0	514	511	0	510	38	9	
3	0	0	0	0	496	510	0	537	38	9	
4	0	0	0	0	494	506	0	542	38	9	
5	0	0	0	0	502	505	0	537	38	9	
6	0	0	0	0	504	504	0	545	38	9	
7	0	0	0	0	509	500	0	559	38	9	
8	0	0	0	0	507	497	0	553	39	9	
9	0	0	0	0	512	498	0	539	38	9	
10	0	0	0	0	510	499	0	526	38	9	
11	0	0	0	0	513	502	0	515	38	9	
12	0	0	0	0	505	503	0	506	38	9	
13	0	0	0	0	500	504	0	500	38	9	
14	0	0	0	0	510	505	0	500	38	9	
15	0	0	0	0	522	508	0	493	38	9	
0	0	0	0	0	509	511	0	489	39	9	
1	0	0	0	0	512	511	0	483	38	9	
2	0	0	0	0	506	511	0	483	38	9	
3	0	0	0	0	500	511	0	481	38	9	
4	0	0	0	0	495	508	0	479	38	9	
5	0	0	0	0	499	504	0	478	38	9	
6	0	0	0	0	505	501	0	481	38	9	
7	0	0	0	0	510	503	0	480	39	9	
8	0	0	0	0	504	505	0	477	39	9	
9	0	0	0	0	508	504	0	475	38	9	
10	0	0	0	0	511	501	0	472	38	9	
11	0	0	0	0	512	500	0	473	38	9	
12	0	0	0	0	506	503	0	476	38	9	
13	0	0	0	0	503	505	0	477	38	9	
14	0	0	0	0	510	505	0	480	38	9	
15	0	0	0	0	515	506	0	477	39	9	
0	0	0	0	0	519	508	0	475	39	9	
1	0	0	0	0	508	511	0	473	38	9	
2	0	0	0	0	505	513	0	473	38	9	
3	0	0	0	0	511	515	0	474	38	9	
4	0	0	0	0	496	519	0	480	38	9	
5	0	0	0	0	495	516	0	479	38	9	
6	0	0	0	0	496	509	0	483	38	9	
7	0	0	0	0	503	502	0	486	38	9	
8	0	0	0	0	505	503	0	482	39	9	
9	0	0	0	0	506	501	0	479	38	9	
10	0	0	0	0	518	500	0	480	38	9	
11	0	0	0	0	506	502	0	483	38	9	
12	0	0	0	0	514	504	0	488	38	9	
13	0	0	0	0	510	505	0	485	38	9	
14	0	0	0	0	508	506	0	485	38	9	
15	0	0	0	0	506	506	0	487	38	9	
0	0	0	0	0	515	506	0	481	39	9	
1	0	0	0	0	514	507	0	480	38	9	
2	0	0	0	0	510	508	0	504	38	9	
3	0	0	0	0	508	507	0	521	38	9	
4	0	0	0	0	511	505	0	534	38	9	
5	0	0	0	0	499	508	0	556	38	9	
6	0	0	0	0	502	509	0	559	38	9	
7	0	0	0	0	492	511	0	570	39	9	
8	0	0	0	0	506	509	0	566	39	9	
9	0	0	0	0	510	506	0	563	39	9	
10	0	0	0	0	503	505	0	572	38	9	
11	0	0	0	0	517	505	0	569	38	9	
12	0	0	0	0	514	507	0	575	38	9	
13	0	0	0	0	511	508	0	572	38	9	
14	0	0	0	0	509	507	0	568	38	9	
15	0	0	0	0	506	506	0	576	39	9	
0	0	0	0	0	511	505	0	568	39	9	
1	0	0	0	0	504	505	0	575	38	9	
2	0	0	0	0	514	508	0	579	38	9	
3	0	0	0	0	512	510	0	560	38	9	
4	0	0	0	0	514	512	0	548	38	9	
5	0	0	0	0	504	515	0	542	38	9	
6	0	0	0	0	496	515	0	528	39	9	
7	0	0	0	0	489	513	0	532	38	9	
8	0	0	0	0	498	511	0	543	39	9	
9	0	0	0	0	502	508	0	538	38	9	
10	0	0	0	0	503	505	0	529	38	9	
11	0	0	0	0	510	504	0	518	38	9	
12	0	0	0	0	519	504	0	508	38	9	
13	0	0	0	0	512	504	0	518	38	9	
14	0	0	0	0	504	505	0	499	38	9	
15	0	0	0	0	509	508	0	495	38	9	
0	0	0	0	0	509	510	0	494	39	9	
1	0	0	0	0	510	512	0	491	38	9	
2	0	0	0	0	508	511	0	489	38	9	
3	0	0	0	0	511	513	0	490	38	9	
4	0	0	0	0	518	513	0	487	38	9	
5	0	0	0	0	512	515	0	487	38	9	
6	0	0	0	0	505	515	0	504	38	9	
7	0	0	0	0	485	511	0	527	39	9	
8	0	0	0	0	498	510	0	535	39	9	
9	0	0	0	0	502	511	0	553	38	9	
10	0	0	0	0	506	514	0	555	38	9	
11	0	0	0	0	512	512	0	559	38	9	
12	0	0	0	0	516	510	0	537	38	9	
13	0	0	0	0	507	508	0	529	38	9	
14	0	0	0	0	512	508	0	521	38	9	
15	0	0	0	0	509	508	0	510	38	9	
0	0	0	0	0	508	509	0	504	39	9	
1	0	0	0	0	507	511	0	510	38	9	
2	0	0	0	0	512	514	0	531	38	9	
3	0	0	0	0	523	515	0	536	38	9	
4	0	0	0	0	510	513	0	529	38	9	
5	0	0	0	0	510	513	0	519	38	9	
6	0	0	0	0	504	513	0	511	39	9	
7	0	0	0	0	495	515	0	504	39	9	
8	0	0	0	0	495	518	0	501	39	9	
9	0	0	0	0	493	519	0	520	38	9	
10	0	0	0	0	508	517	0	533	38	9	
11	0	0	0	0	508	513	0	532	38	9	
12	0	0	0	0	510	511	0	525	38	9	
13	0	0	0	0	512	511	0	515	38	9	
14	0	0	0	0	517	512	0	508	38	9	
15	0	0	0	0	513	514	0	500	38	9	
0	0	0	0	0	508	516	0	508	39	9	
1	0	0	0	0	503	516	0	525	38	9	
2	0	0	0	0	510	513	0	527	38	9	
3	0	0	0	0	511	511	0	521	38	9	
4	0	0	0	0	517	510	0	529	38	9	
5	0	0	0	0	521	512	0	507	38	9	
6	0	0	0	0	516	516	0	503	38	9	
7	0	0	0	0	507	521	0	501	38	9	
8	0	0	0	0	489	522	0	496	39	9	
9	0	0	0	0	495	521	0	492	38	9	
10	0	0	0	0	501	519	0	503	38	9	
11	0	0	0	0	504	518	0	526	38	9	
12	0	0	0	0	509	519	0	533	38	9	
13	0	0	0	0	511	516	0	531	38	9	
14	0	0	0	0	519	515	0	537	38	9	
15	0	0	0	0	512	518	0	552	39	9	
0	0	0	0	0	506	522	0	546	39	9	
1	0	0	0	0	507	526	0	535	38	9	
2	0	0	0	0	506	528	0	524	38	9	
3	0	0	0	0	512	531	0	512	38	9	
4	0	0	0	0	509	536	0	505	38	9	
5	0	0	0	0	510	541	0	506	38	9	
6	0	0	0	0	517	543	0	500	39	9	
7	0	0	0	0	516	545	0	499	39	9	
8	0	0	0	0	507	550	0	514	39	9	
9	0	0	0	0	489	551	0	528	39	9	
10	0	0	0	0	498	551	0	532	38	9	
11	0	0	0	0	498	551	0	531	38	9	
12	0	0	0	0	506	552	0	524	38	9	
13	0	0	0	0	507	552	0	518	38	9	
14	0	0	0	0	514	551	0	515	38	9	
15	0	0	0	0	512	549	0	511	38	9	
0	0	0	0	0	510	547	0	509	39	9	
1	0	0	0	0	510	547	0	505	38	9	
2	0	0	0	0	505	547	0	520	38	9	
3	0	0	0	0	510	547	0	544	38	9	
4	0	0	0	0	513	549	0	550	38	9	
5	0	0	0	0	515	554	0	546	38	9	
6	0	0	0	0	514	559	0	561	38	9	
7	0	0	0	0	511	563	0	562	39	9	
8	0	0	0	0	513	564	0	551	39	9	
9	0	0	0	0	496	565	0	543	38	9	
10	0	0	0	0	494	563	0	540	38	9	
11	0	0	0	0	500	560	0	531	38	9	
12	0	0	0	0	505	556	0	520	38	9	
13	0	0	0	0	499	551	0	514	38	9	
14	0	0	0	0	511	547	0	510	38	9	
15	0	0	0	0	514	543	0	507	38	9	
0	0	0	0	0	510	540	0	507	39	9	
1	0	0	0	0	507	537	0	521	38	9	
2	0	0	0	0	505	540	0	506	38	9	
3	0	0	0	0	507	549	0	508	38	9	
4	0	0	0	0	518	552	0	516	38	9	
5	0	0	0	0	510	556	0	531	38	9	
6	0	0	0	0	515	556	0	548	38	9	
7	0	0	0	0	519	553	0	560	39	9	
8	0	0	0	0	508	553	0	574	39	9	
9	0	0	0	0	504	552	0	567	38	9	
10	0	0	0	0	498	547	0	554	38	9	
11	0	0	0	0	497	541	0	537	38	9	
12	0	0	0	0	492	536	0	526	38	9	
13	0	0	0	0	508	534	0	519	38	9	
14	0	0	0	0	505	531	0	512	38	9	
15	0	0	0	0	515	527	0	508	39	9	
0	0	0	0	0	508	524	0	502	39	9	
1	0	0	0	0	511	524	0	510	38	9	
2	0	0	0	0	517	524	0	533	38	9	
3	0	0	0	0	503	523	0	538	38	9	
4	0	0	0	0	504	520	0	532	38	9	
5	0	0	0	0	516	518	0	524	38	9	
6	0	0	0	0	510	516	0	516	39	9	
7	0	0	0	0	506	516	0	517	39	9	
8	0	0	0	0	512	516	0	540	39	9	
9	0	0	0	0	512	520	0	540	38	9	
10	0	0	0	0	505	523	0	534	38	9	
11	0	0	0	0	490	521	0	539	38	9	
12	0	0	0	0	496	518	0	530	38	9	
13	0	0	0	0	497	514	0	521	38	9	
14	0	0	0	0	507	511	0	522	38	9	
15	0	0	0	0	515	511	0	504	38	9	
0	0	0	0	0	514	511	0	499	39	9	
1	0	0	0	0	518	510	0	497	38	9	
2	0	0	0	0	512	509	0	495	38	9	
3	0	0	0	0	507	509	0	516	38	9	
4	0	0	0	0	506	506	0	532	38	9	
5	0	0	0	0	505	504	0	529	38	9	
6	0	0	0	0	512	503	0	529	38	9	
7	0	0	0	0	508	503	0	545	39	9	
8	0	0	0	0	520	507	0	547	39	9	
9	0	0	0	0	509	512	0	535	38	9	
10	0	0	0	0	504	518	0	521	39	9	
11	0	0	0	0	502	519	0	511	38	9	
12	0	0	0	0	498	520	0	504	38	9	
13	0	0	0	0	484	515	0	497	39	9	
14	0	0	0	0	504	506	0	492	38	9	
15	0	0	0	0	508	503	0	499	38	9	
0	0	0	0	0	503	504	0	492	39	9	
1	0	0	0	0	515	506	0	513	38	9	
2	0	0	0	0	509	509	0	522	38	9	
3	0	0	0	0	508	515	0	516	38	9	
4	0	0	0	0	511	521	0	509	38	9	
5	0	0	0	0	513	521	0	504	38	9	
6	0	0	0	0	511	520	0	497	38	9	
7	0	0	0	0	510	517	0	493	38	9	
8	0	0	0	0	512	514	0	504	39	9	
9	0	0	0	0	510	513	0	518	38	9	
10	0	0	0	0	515	513	0	519	38	9	
11	0	0	0	0	511	514	0	512	38	9	
12	0	0	0	0	495	512	0	514	38	9	
13	0	0	0	0	504	510	0	505	38	9	
14	0	0	0	0	500	508	0	498	38	9	
15	0	0	0	0	504	507	0	495	38	9	
0	0	0	0	0	509	507	0	487	39	9	
1	0	0	0	0	513	508	0	483	38	9	
2	0	0	0	0	512	511	0	477	38	9	
3	0	0	0	0	512	514	0	486	38	9	
4	0	0	0	0	506	514	0	512	38	9	
5	0	0	0	0	507	515	0	518	38	9	
6	0	0	0	0	510	513	0	513	38	9	
7	0	0	0	0	511	511	0	537	39	9	
8	0	0	0	0	518	509	0	528	39	9	
9	0	0	0	0	514	508	0	519	38	9	
10	0	0	0	0	508	508	0	510	38	9	
11	0	0	0	0	509	511	0	495	38	9	
12	0	0	0	0	504	513	0	487	38	9	
13	0	0	0	0	491	513	0	484	38	9	
14	0	0	0	0	498	513	0	478	38	9	
15	0	0	0	0	507	513	0	475	38	9	
0	0	0	0	0	513	513	0	475	39	9	
1	0	0	0	0	504	518	0	489	38	9	
2	0	0	0	0	514	525	0	512	38	9	
3	0	0	0	0	515	528	0	517	38	9	
4	0	0	0	0	512	526	0	511	38	9	
5	0	0	0	0	505	524	0	501	38	9	
6	0	0	0	0	501	524	0	491	38	9	
7	0	0	0	0	505	526	0	494	38	9	
8	0	0	0	0	513	532	0	508	39	9	
9	0	0	0	0	512	536	0	504	38	9	
10	0	0	0	0	508	536	0	496	38	9	
11	0	0	0	0	508	535	0	498	38	9	
12	0	0	0	0	515	533	0	494	38	9	
13	0	0	0	0	497	531	0	489	38	9	
14	0	0	0	0	491	527	0	485	39	9	
15	0	0	0	0	501	525	0	478	39	9	
0	0	0	0	0	504	526	0	474	39	9	
1	0	0	0	0	503	527	0	471	38	9	
2	0	0	0	0	512	526	0	467	38	9	
3	0	0	0	0	509	522	0	466	38	9	
4	0	0	0	0	512	518	0	464	38	9	
5	0	0	0	0	502	513	0	480	38	9	
6	0	0	0	0	505	511	0	517	39	9	
7	0	0	0	0	511	508	0	508	38	9	
8	0	0	0	0	510	508	0	526	39	9	
9	0	0	0	0	515	509	0	529	38	9	
10	0	0	0	0	515	508	0	515	38	9	
11	0	0	0	0	509	508	0	500	38	9	
12	0	0	0	0	515	506	0	491	38	9	
13	0	0	0	0	509	503	0	478	38	9	
14	0	0	0	0	499	497	0	472	38	9	
15	0	0	0	0	490	493	0	469	39	9	
0	0	0	0	0	495	489	0	464	39	9	
1	0	0	0	0	502	487	0	468	38	9	
2	0	0	0	0	512	483	0	494	38	9	
3	0	0	0	0	504	482	0	501	38	9	
4	0	0	0	0	518	485	0	497	38	9	
5	0	0	0	0	520	487	0	488	39	9	
6	0	0	0	0	514	494	0	481	38	9	
7	0	0	0	0	504	504	0	476	38	9	
8	0	0	0	0	505	515	0	471	39	9	
9	0	0	0	0	516	526	0	484	38	9	
10	0	0	0	0	516	538	0	520	38	9	
11	0	0	0	0	512	551	0	513	38	9	
12	0	0	0	0	519	565	0	518	38	9	
13	0	0	0	0	511	580	0	533	38	9	
14	0	0	0	0	500	598	0	535	38	9	
15	0	0	0	0	488	613	0	524	39	9	
0	0	0	0	0	498	628	0	510	39	9	
1	0	0	0	0	500	644	0	497	38	9	
2	0	0	0	0	504	660	0	489	39	9	
3	0	0	0	0	508	679	0	480	38	9	
4	0	0	0	0	509	699	0	475	38	9	
5	0	0	0	0	515	718	0	471	39	9	
6	0	0	0	0	512	746	0	469	38	9	
7	0	0	0	0	505	775	0	467	38	9	
8	0	0	0	0	511	800	0	465	39	9	
9	0	0	0	0	507	825	0	463	38	9	
10	0	0	0	0	511	848	0	478	38	9	
11	0	0	0	0	515	866	0	465	38	9	
12	0	0	0	0	512	880	0	487	38	9	
13	0	0	0	0	517	893	0	505	38	9	
14	0	0	0	0	507	905	0	513	38	9	
15	0	0	0	0	504	916	0	530	38	9	
0	0	0	0	0	492	926	0	526	39	9	
1	0	0	0	0	496	935	0	513	38	9	
2	0	0	0	0	497	938	0	511	38	9	
3	0	0	0	0	507	938	0	503	38	9	
4	0	0	0	0	501	933	0	496	38	9	
5	0	0	0	0	513	927	0	487	38	9	
6	0	0	0	0	523	920	0	480	38	9	
7	0	0	0	0	513	910	0	476	38	9	
8	0	0	0	0	501	898	0	475	39	9	
9	0	0	0	0	508	881	0	479	38	9	
10	0	0	0	0	518	859	0	503	38	9	
11	0	0	0	0	517	838	0	512	38	9	
12	0	0	0	0	512	816	0	507	38	9	
13	0	0	0	0	514	793	0	499	38	9	
14	0	0	0	0	507	764	0	496	38	9	
15	0	0	0	0	508	731	0	498	38	9	
0	0	0	0	0	494	688	0	494	39	9	
1	0	0	0	0	496	647	0	505	38	9	
2	0	0	0	0	501	612	0	523	38	9	
3	0	0	0	0	509	581	0	524	38	9	
4	0	0	0	0	504	552	0	513	38	9	
5	0	0	0	0	515	523	0	504	38	9	
6	0	0	0	0	514	499	0	495	38	9	
7	0	0	0	0	510	480	0	497	38	9	
8	0	0	0	0	514	461	0	510	39	9	
9	0	0	0	0	499	447	0	507	38	9	
10	0	0	0	0	516	434	0	499	38	9	
11	0	0	0	0	517	424	0	491	38	9	
12	0	0	0	0	512	415	0	485	38	9	
13	0	0	0	0	511	410	0	482	38	9	
14	0	0	0	0	511	409	0	480	38	9	
15	0	0	0	0	507	407	0	476	39	9	
0	0	0	0	0	499	404	0	474	39	9	
1	0	0	0	0	492	400	0	483	38	9	
2	0	0	0	0	494	397	0	505	38	9	
3	0	0	0	0	504	396	0	511	38	9	
4	0	0	0	0	508	395	0	506	38	9	
5	0	0	0	0	508	397	0	506	38	9	
6	0	0	0	0	514	399	0	502	38	9	
7	0	0	0	0	519	399	0	511	39	9	
8	0	0	0	0	505	400	0	519	39	9	
9	0	0	0	0	509	406	0	527	38	9	
10	0	0	0	0	505	412	0	523	38	9	
11	0	0	0	0	511	417	0	510	38	9	
12	0	0	0	0	513	420	0	501	38	9	
13	0	0	0	0	511	422	0	497	38	9	
14	0	0	0	0	515	423	0	488	38	9	
15	0	0	0	0	516	424	0	484	38	9	
0	0	0	0	0	504	424	0	481	39	9	
1	0	0	0	0	500	425	0	484	38	9	
2	0	0	0	0	501	425	0	513	38	9	
3	0	0	0	0	490	422	0	520	38	9	
4	0	0	0	0	501	418	0	518	38	9	
5	0	0	0	0	507	416	0	513	39	9	
6	0	0	0	0	507	414	0	507	38	9	
7	0	0	0	0	517	413	0	503	38	9	
8	0	0	0	0	512	414	0	518	39	9	
9	0	0	0	0	512	415	0	530	38	9	
10	0	0	0	0	510	415	0	529	38	9	
11	0	0	0	0	501	415	0	522	38	9	
12	0	0	0	0	516	418	0	513	38	9	
13	0	0	0	0	513	423	0	504	38	9	
14	0	0	0	0	509	425	0	497	38	9	
15	0	0	0	0	514	426	0	495	39	9	
0	0	0	0	0	511	427	0	497	39	9	
1	0	0	0	0	509	428	0	519	39	9	
2	0	0	0	0	498	427	0	527	38	9	
3	0	0	0	0	488	426	0	525	38	9	
4	0	0	0	0	503	424	0	533	38	9	
5	0	0	0	0	514	426	0	524	38	9	
6	0	0	0	0	501	429	0	516	38	9	
7	0	0	0	0	510	431	0	508	38	9	
8	0	0	0	0	514	431	0	502	39	9	
9	0	0	0	0	519	430	0	523	38	9	
10	0	0	0	0	506	430	0	530	38	9	
11	0	0	0	0	508	430	0	535	38	9	
12	0	0	0	0	505	431	0	531	38	9	
13	0	0	0	0	512	436	0	520	38	9	
14	0	0	0	0	508	441	0	511	39	9	
15	0	0	0	0	518	445	0	505	39	9	
0	0	0	0	0	515	445	0	500	39	9	
1	0	0	0	0	507	449	0	497	38	9	
2	0	0	0	0	501	453	0	493	38	9	
3	0	0	0	0	489	452	0	504	38	9	
4	0	0	0	0	496	447	0	529	38	9	
5	0	0	0	0	507	444	0	537	39	9	
6	0	0	0	0	508	441	0	554	38	9	
7	0	0	0	0	507	440	0	556	38	9	
8	0	0	0	0	512	439	0	541	39	9	
9	0	0	0	0	514	437	0	527	38	9	
10	0	0	0	0	506	438	0	517	38	9	
11	0	0	0	0	509	440	0	504	38	9	
12	0	0	0	0	507	442	0	498	38	9	
13	0	0	0	0	502	445	0	494	38	9	
14	0	0	0	0	517	448	0	490	38	9	
15	0	0	0	0	513	451	0	491	38	9	
0	0	0	0	0	515	455	0	490	39	9	
1	0	0	0	0	504	457	0	489	38	9	
2	0	0	0	0	513	459	0	487	38	9	
3	0	0	0	0	499	461	0	488	38	9	
4	0	0	0	0	493	461	0	491	38	9	
5	0	0	0	0	495	456	0	513	38	9	
6	0	0	0	0	503	448	0	532	38	9	
7	0	0	0	0	509	449	0	545	38	9	
8	0	0	0	0	512	449	0	556	39	9	
9	0	0	0	0	513	451	0	552	38	9	
10	0	0	0	0	520	453	0	549	38	9	
11	0	0	0	0	507	455	0	535	38	9	
12	0	0	0	0	509	457	0	523	38	9	
13	0	0	0	0	509	458	0	512	38	9	
14	0	0	0	0	510	459	0	504	38	9	
15	0	0	0	0	512	462	0	499	38	9	
0	0	0	0	0	507	467	0	495	39	9	
1	0	0	0	0	506	472	0	494	38	9	
2	0	0	0	0	510	476	0	501	38	9	
3	0	0	0	0	516	477	0	524	38	9	
4	0	0	0	0	494	475	0	534	38	9	
5	0	0	0	0	495	472	0	532	38	9	
6	0	0	0	0	499	468	0	520	38	9	
7	0	0	0	0	501	463	0	513	39	9	
8	0	0	0	0	508	458	0	508	39	9	
9	0	0	0	0	515	454	0	523	38	9	
10	0	0	0	0	514	455	0	547	38	9	
11	0	0	0	0	515	463	0	535	39	9	
12	0	0	0	0	510	468	0	527	38	9	
13	0	0	0	0	499	470	0	519	38	9	
14	0	0	0	0	504	470	0	510	38	9	
15	0	0	0	0	512	470	0	503	39	9	
0	0	0	0	0	513	473	0	508	39	9	
1	0	0	0	0	507	475	0	525	38	9	
2	0	0	0	0	517	477	0	531	38	9	
3	0	0	0	0	519	478	0	523	38	9	
4	0	0	0	0	501	478	0	524	38	9	
5	0	0	0	0	486	476	0	522	38	9	
6	0	0	0	0	492	473	0	512	39	9	
7	0	0	0	0	505	469	0	506	38	9	
8	0	0	0	0	504	465	0	503	39	9	
9	0	0	0	0	504	465	0	515	38	9	
10	0	0	0	0	515	465	0	533	38	9	
11	0	0	0	0	525	467	0	533	38	9	
12	0	0	0	0	511	472	0	525	38	9	
13	0	0	0	0	509	478	0	514	38	9	
14	0	0	0	0	503	483	0	505	38	9	
15	0	0	0	0	515	486	0	500	38	9	
0	0	0	0	0	514	486	0	496	39	9	
1	0	0	0	0	514	483	0	492	38	9	
2	0	0	0	0	511	483	0	492	38	9	
3	0	0	0	0	506	484	0	509	38	9	
4	0	0	0	0	508	484	0	527	38	9	
5	0	0	0	0	494	487	0	536	38	9	
6	0	0	0	0	490	487	0	556	38	9	
7	0	0	0	0	499	488	0	553	38	9	
8	0	0	0	0	507	490	0	538	39	9	
9	0	0	0	0	507	491	0	520	38	9	
10	0	0	0	0	506	492	0	509	38	9	
11	0	0	0	0	516	492	0	499	38	9	
12	0	0	0	0	516	492	0	492	38	9	
13	0	0	0	0	510	494	0	491	38	9	
14	0	0	0	0	508	496	0	489	38	9	
15	0	0	0	0	502	501	0	486	38	9	
0	0	0	0	0	510	506	0	485	39	9	
1	0	0	0	0	519	510	0	481	38	9	
2	0	0	0	0	511	512	0	477	38	9	
3	0	0	0	0	508	509	0	479	38	9	
4	0	0	0	0	510	505	0	482	38	9	
5	0	0	0	0	509	505	0	511	38	9	
6	0	0	0	0	496	506	0	521	39	9	
7	0	0	0	0	496	505	0	533	39	9	
8	0	0	0	0	500	502	0	556	39	9	
9	0	0	0	0	503	496	0	530	38	9	
10	0	0	0	0	508	491	0	516	39	9	
11	0	0	0	0	509	486	0	506	39	9	
12	0	0	0	0	509	486	0	504	38	9	
13	0	0	0	0	513	491	0	503	39	9	
14	0	0	0	0	516	496	0	499	38	9	
15	0	0	0	0	504	500	0	492	39	9	
0	0	0	0	0	511	501	0	488	39	9	
1	0	0	0	0	515	503	0	501	38	9	
2	0	0	0	0	513	505	0	522	38	9	
3	0	0	0	0	516	506	0	530	38	9	
4	0	0	0	0	517	508	0	532	38	9	
5	0	0	0	0	508	509	0	523	38	9	
6	0	0	0	0	507	512	0	513	38	9	
7	0	0	0	0	489	514	0	502	39	9	
8	0	0	0	0	493	514	0	496	39	9	
9	0	0	0	0	510	513	0	493	38	9	
10	0	0	0	0	508	511	0	512	38	9	
11	0	0	0	0	506	509	0	525	38	9	
12	0	0	0	0	513	510	0	522	38	9	
13	0	0	0	0	516	513	0	514	38	9	
14	0	0	0	0	511	514	0	508	38	9	
15	0	0	0	0	502	514	0	499	39	9	
0	0	0	0	0	509	513	0	494	39	9	
1	0	0	0	0	507	512	0	491	38	9	
2	0	0	0	0	512	514	0	488	38	9	
3	0	0	0	0	517	519	0	488	38	9	
4	0	0	0	0	513	521	0	509	38	9	
5	0	0	0	0	511	523	0	525	38	9	
6	0	0	0	0	510	524	0	535	38	9	
7	0	0	0	0	492	524	0	550	39	9	
8	0	0	0	0	492	524	0	546	39	9	
9	0	0	0	0	493	523	0	540	38	9	
10	0	0	0	0	502	521	0	530	38	9	
11	0	0	0	0	507	520	0	522	39	9	
12	0	0	0	0	509	519	0	515	38	9	
13	0	0	0	0	511	519	0	505	38	9	
14	0	0	0	0	517	519	0	498	38	9	
15	0	0	0	0	513	519	0	494	39	9	
0	0	0	0	0	516	521	0	488	39	9	
1	0	0	0	0	508	520	0	492	38	9	
2	0	0	0	0	510	520	0	515	38	9	
3	0	0	0	0	513	522	0	522	38	9	
4	0	0	0	0	514	525	0	519	38	9	
5	0	0	0	0	514	528	0	510	38	9	
6	0	0	0	0	504	530	0	504	38	9	
7	0	0	0	0	507	533	0	500	38	9	
8	0	0	0	0	499	534	0	513	39	9	
9	0	0	0	0	497	532	0	523	38	9	
10	0	0	0	0	497	530	0	529	38	9	
11	0	0	0	0	500	529	0	514	38	9	
12	0	0	0	0	511	527	0	506	38	9	
13	0	0	0	0	512	525	0	501	38	9	
14	0	0	0	0	514	525	0	493	38	9	
15	0	0	0	0	515	527	0	489	39	9	
0	0	0	0	0	511	529	0	487	39	9	
1	0	0	0	0	503	531	0	487	38	9	
2	0	0	0	0	510	531	0	524	38	9	
3	0	0	0	0	515	532	0	523	38	9	
4	0	0	0	0	510	533	0	524	38	9	
5	0	0	0	0	508	532	0	520	38	9	
6	0	0	0	0	509	531	0	510	38	9	
7	0	0	0	0	512	532	0	504	38	9	
8	0	0	0	0	508	535	0	511	39	9	
9	0	0	0	0	490	540	0	521	38	9	
10	0	0	0	0	499	542	0	519	38	9	
11	0	0	0	0	499	543	0	512	38	9	
12	0	0	0	0	504	544	0	515	38	9	
13	0	0	0	0	504	541	0	508	38	9	
14	0	0	0	0	517	539	0	501	38	9	
15	0	0	0	0	518	539	0	496	39	9	
0	0	0	0	0	519	539	0	495	39	9	
1	0	0	0	0	510	536	0	512	39	9	
2	0	0	0	0	505	535	0	527	38	9	
3	0	0	0	0	498	538	0	526	38	9	
4	0	0	0	0	512	540	0	519	38	9	
5	0	0	0	0	518	543	0	513	38	9	
6	0	0	0	0	514	549	0	504	38	9	
7	0	0	0	0	515	555	0	497	38	9	
8	0	0	0	0	511	559	0	496	39	9	
9	0	0	0	0	503	561	0	491	38	9	
10	0	0	0	0	483	556	0	490	38	9	
11	0	0	0	0	496	550	0	513	38	9	
12	0	0	0	0	507	547	0	524	38	9	
13	0	0	0	0	507	546	0	525	38	9	
14	0	0	0	0	514	545	0	525	38	9	
15	0	0	0	0	511	543	0	542	39	9	
0	0	0	0	0	512	543	0	545	39	9	
1	0	0	0	0	515	542	0	534	38	9	
2	0	0	0	0	509	543	0	524	38	9	
3	0	0	0	0	499	543	0	516	38	9	
4	0	0	0	0	514	541	0	507	38	9	
5	0	0	0	0	509	538	0	504	38	9	
6	0	0	0	0	505	538	0	499	38	9	
7	0	0	0	0	511	542	0	497	39	9	
8	0	0	0	0	508	543	0	503	39	9	
9	0	0	0	0	513	544	0	522	38	9	
10	0	0	0	0	488	544	0	531	38	9	
11	0	0	0	0	502	543	0	530	38	9	
12	0	0	0	0	504	543	0	530	38	9	
13	0	0	0	0	501	542	0	528	38	9	
14	0	0	0	0	504	540	0	520	38	9	
15	0	0	0	0	507	537	0	514	39	9	
0	0	0	0	0	519	535	0	508	39	9	
1	0	0	0	0	517	534	0	514	38	9	
2	0	0	0	0	511	534	0	537	38	9	
3	0	0	0	0	515	533	0	541	38	9	
4	0	0	0	0	510	535	0	533	38	9	
5	0	0	0	0	509	536	0	521	38	9	
6	0	0	0	0	515	539	0	513	38	9	
7	0	0	0	0	506	540	0	507	39	9	
8	0	0	0	0	508	538	0	506	39	9	
9	0	0	0	0	509	536	0	526	38	9	
10	0	0	0	0	504	534	0	540	38	9	
11	0	0	0	0	497	531	0	540	38	9	
12	0	0	0	0	501	530	0	534	38	9	
13	0	0	0	0	498	530	0	523	38	9	
14	0	0	0	0	509	533	0	515	38	9	
15	0	0	0	0	509	533	0	508	38	9	
0	0	0	0	0	512	532	0	514	39	9	
1	0	0	0	0	507	532	0	546	38	9	
2	0	0	0	0	511	531	0	533	38	9	
3	0	0	0	0	515	528	0	528	38	9	
4	0	0	0	0	515	526	0	521	38	9	
5	0	0	0	0	511	524	0	512	38	9	
6	0	0	0	0	515	524	0	508	38	9	
7	0	0	0	0	509	522	0	506	38	9	
8	0	0	0	0	510	522	0	501	39	9	
9	0	0	0	0	509	524	0	497	38	9	
10	0	0	0	0	508	524	0	506	38	9	
11	0	0	0	0	503	524	0	531	38	9	
12	0	0	0	0	495	519	0	553	38	9	
13	0	0	0	0	497	513	0	557	38	9	
14	0	0	0	0	507	511	0	563	38	9	
15	0	0	0	0	506	511	0	561	39	9	
0	0	0	0	0	505	511	0	551	39	9	
1	0	0	0	0	515	510	0	539	38	9	
2	0	0	0	0	514	510	0	525	38	9	
3	0	0	0	0	519	509	0	516	38	9	
4	0	0	0	0	503	509	0	512	38	9	
5	0	0	0	0	507	507	0	505	38	9	
6	0	0	0	0	509	504	0	502	38	9	
7	0	0	0	0	511	501	0	505	38	9	
8	0	0	0	0	513	498	0	498	39	9	
9	0	0	0	0	516	498	0	497	38	9	
10	0	0	0	0	513	499	0	498	38	9	
11	0	0	0	0	499	498	0	494	39	9	
12	0	0	0	0	496	496	0	495	38	9	
13	0	0	0	0	491	492	0	511	38	9	
14	0	0	0	0	499	494	0	534	38	9	
15	0	0	0	0	506	494	0	540	38	9	
0	0	0	0	0	510	489	0	558	39	9	
1	0	0	0	0	511	482	0	562	38	9	
2	0	0	0	0	515	479	0	551	38	9	
3	0	0	0	0	509	480	0	536	38	9	
4	0	0	0	0	505	478	0	524	38	9	
5	0	0	0	0	504	476	0	516	38	9	
6	0	0	0	0	512	476	0	506	38	9	
7	0	0	0	0	519	478	0	499	38	9	
8	0	0	0	0	510	479	0	499	39	9	
9	0	0	0	0	514	483	0	498	38	9	
10	0	0	0	0	514	486	0	521	38	9	
11	0	0	0	0	515	488	0	532	38	9	
12	0	0	0	0	500	489	0	528	38	9	
13	0	0	0	0	492	486	0	530	39	9	
14	0	0	0	0	490	481	0	527	38	9	
15	0	0	0	0	502	476	0	521	39	9	
0	0	0	0	0	503	471	0	537	39	9	
1	0	0	0	0	510	467	0	546	38	9	
2	0	0	0	0	512	464	0	542	38	9	
3	0	0	0	0	515	463	0	530	38	9	
4	0	0	0	0	513	461	0	519	38	9	
5	0	0	0	0	511	461	0	509	38	9	
6	0	0	0	0	507	465	0	500	38	9	
7	0	0	0	0	503	472	0	496	39	9	
8	0	0	0	0	515	476	0	495	39	9	
9	0	0	0	0	515	477	0	487	38	9	
10	0	0	0	0	516	481	0	507	38	9	
11	0	0	0	0	509	484	0	521	38	9	
12	0	0	0	0	516	486	0	520	38	9	
13	0	0	0	0	495	487	0	514	38	9	
14	0	0	0	0	487	485	0	506	38	9	
15	0	0	0	0	500	482	0	499	38	9	
0	0	0	0	0	502	479	0	510	39	9	
1	0	0	0	0	511	480	0	520	38	9	
2	0	0	0	0	511	480	0	518	38	9	
3	0	0	0	0	513	480	0	510	39	9	
4	0	0	0	0	510	483	0	500	38	9	
5	0	0	0	0	512	483	0	492	38	9	
6	0	0	0	0	503	481	0	485	38	9	
7	0	0	0	0	507	478	0	483	39	9	
8	0	0	0	0	513	477	0	478	39	9	
9	0	0	0	0	510	478	0	473	38	9	
10	0	0	0	0	512	481	0	472	38	9	
11	0	0	0	0	514	483	0	476	38	9	
12	0	0	0	0	508	488	0	476	38	9	
13	0	0	0	0	508	492	0	477	38	9	
14	0	0	0	0	493	491	0	480	39	9	
15	0	0	0	0	500	487	0	477	38	9	
0	0	0	0	0	498	482	0	472	39	9	
1	0	0	0	0	503	479	0	467	38	9	
2	0	0	0	0	506	478	0	467	38	9	
3	0	0	0	0	511	476	0	470	38	9	
4	0	0	0	0	510	476	0	467	38	9	
5	0	0	0	0	516	476	0	468	38	9	
6	0	0	0	0	508	477	0	469	38	9	
7	0	0	0	0	505	478	0	469	38	9	
8	0	0	0	0	510	477	0	467	39	9	
9	0	0	0	0	511	480	0	465	38	9	
10	0	0	0	0	515	482	0	466	38	9	
11	0	0	0	0	508	483	0	471	38	9	
12	0	0	0	0	512	488	0	473	38	9	
13	0	0	0	0	510	494	0	498	38	9	
14	0	0	0	0	507	499	0	516	38	9	
15	0	0	0	0	491	497	0	513	39	9	
0	0	0	0	0	491	492	0	501	39	9	
1	0	0	0	0	499	487	0	487	38	9	
2	0	0	0	0	504	485	0	480	38	9	
3	0	0	0	0	512	487	0	478	38	9	
4	0	0	0	0	508	490	0	474	38	9	
5	0	0	0	0	511	494	0	473	38	9	
6	0	0	0	0	512	496	0	476	38	9	
7	0	0	0	0	511	496	0	499	38	9	
8	0	0	0	0	501	495	0	517	39	9	
9	0	0	0	0	516	494	0	526	38	9	
10	0	0	0	0	519	495	0	547	38	9	
11	0	0	0	0	516	498	0	550	38	9	
12	0	0	0	0	514	499	0	558	38	9	
13	0	0	0	0	515	499	0	556	38	9	
14	0	0	0	0	508	498	0	550	38	9	
15	0	0	0	0	496	496	0	555	38	9	
0	0	0	0	0	486	491	0	542	39	9	
1	0	0	0	0	494	491	0	544	38	9	
2	0	0	0	0	499	491	0	546	38	9	
3	0	0	0	0	505	492	0	542	38	9	
4	0	0	0	0	504	491	0	530	38	9	
5	0	0	0	0	515	490	0	516	38	9	
6	0	0	0	0	521	491	0	503	38	9	
7	0	0	0	0	515	493	0	489	38	9	
8	0	0	0	0	509	495	0	492	39	9	
9	0	0	0	0	496	497	0	512	38	9	
10	0	0	0	0	506	500	0	511	38	9	
11	0	0	0	0	513	503	0	504	38	9	
12	0	0	0	0	517	504	0	496	38	9	
13	0	0	0	0	514	506	0	484	38	9	
14	0	0	0	0	514	505	0	479	38	9	
15	0	0	0	0	510	506	0	477	38	9	
0	0	0	0	0	494	504	0	475	39	9	
1	0	0	0	0	496	499	0	488	38	9	
2	0	0	0	0	499	497	0	481	38	9	
3	0	0	0	0	499	494	0	505	38	9	
4	0	0	0	0	513	489	0	514	38	9	
5	0	0	0	0	512	488	0	529	38	9	
6	0	0	0	0	516	492	0	535	38	9	
7	0	0	0	0	510	494	0	523	38	9	
8	0	0	0	0	511	497	0	514	39	9	
9	0	0	0	0	508	503	0	510	38	9	
10	0	0	0	0	516	508	0	501	38	9	
11	0	0	0	0	508	510	0	491	38	9	
12	0	0	0	0	510	509	0	483	38	9	
13	0	0	0	0	515	507	0	479	38	9	
14	0	0	0	0	519	507	0	473	38	9	
15	0	0	0	0	509	510	0	473	38	9	
0	0	0	0	0	497	511	0	467	39	9	
1	0	0	0	0	492	511	0	465	38	9	
2	0	0	0	0	499	510	0	469	38	9	
3	0	0	0	0	504	508	0	464	38	9	
4	0	0	0	0	508	505	0	464	38	9	
5	0	0	0	0	504	504	0	483	38	9	
6	0	0	0	0	513	504	0	504	38	9	
7	0	0	0	0	510	505	0	512	39	9	
8	0	0	0	0	516	506	0	531	39	9	
9	0	0	0	0	506	507	0	531	39	9	
10	0	0	0	0	500	507	0	520	38	9	
11	0	0	0	0	509	504	0	506	38	9	
12	0	0	0	0	515	503	0	496	38	9	
13	0	0	0	0	512	504	0	493	38	9	
14	0	0	0	0	514	506	0	481	38	9	
15	0	0	0	0	519	510	0	478	38	9	
0	0	0	0	0	515	511	0	475	39	9	
1	0	0	0	0	495	510	0	474	38	9	
2	0	0	0	0	488	507	0	496	38	9	
3	0	0	0	0	503	501	0	507	38	9	
4	0	0	0	0	503	497	0	505	38	9	
5	0	0	0	0	502	496	0	502	38	9	
6	0	0	0	0	509	499	0	495	38	9	
7	0	0	0	0	519	504	0	491	38	9	
8	0	0	0	0	515	506	0	508	39	9	
9	0	0	0	0	512	507	0	518	38	9	
10	0	0	0	0	505	507	0	517	38	9	
11	0	0	0	0	507	505	0	512	38	9	
12	0	0	0	0	509	507	0	504	38	9	
13	0	0	0	0	517	510	0	508	39	9	
14	0	0	0	0	505	512	0	502	38	9	
15	0	0	0	0	514	515	0	496	38	9	
0	0	0	0	0	508	519	0	493	39	9	
1	0	0	0	0	503	519	0	490	38	9	
2	0	0	0	0	492	514	0	508	38	9	
3	0	0	0	0	497	510	0	521	38	9	
4	0	0	0	0	504	507	0	518	38	9	
5	0	0	0	0	508	504	0	511	38	9	
6	0	0	0	0	505	500	0	504	38	9	
7	0	0	0	0	509	496	0	495	39	9	
8	0	0	0	0	513	492	0	489	39	9	
9	0	0	0	0	514	496	0	487	38	9	
10	0	0	0	0	512	502	0	482	38	9	
11	0	0	0	0	505	509	0	482	38	9	
12	0	0	0	0	511	511	0	504	38	9	
13	0	0	0	0	520	514	0	516	38	9	
14	0	0	0	0	511	514	0	515	39	9	
15	0	0	0	0	511	513	0	509	38	9	
0	0	0	0	0	511	512	0	496	39	9	
1	0	0	0	0	515	512	0	510	38	9	
2	0	0	0	0	503	514	0	524	38	9	
3	0	0	0	0	488	515	0	524	38	9	
4	0	0	0	0	499	514	0	518	38	9	
5	0	0	0	0	501	511	0	508	38	9	
6	0	0	0	0	504	507	0	501	38	9	
7	0	0	0	0	504	501	0	494	38	9	
8	0	0	0	0	520	497	0	500	39	9	
9	0	0	0	0	509	494	0	517	38	9	
10	0	0	0	0	510	492	0	518	38	9	
11	0	0	0	0	512	493	0	515	38	9	
12	0	0	0	0	503	494	0	520	38	9	
13	0	0	0	0	504	495	0	514	38	9	
14	0	0	0	0	515	497	0	509	38	9	
15	0	0	0	0	515	503	0	504	38	9	
0	0	0	0	0	514	505	0	499	39	9	
1	0	0	0	0	514	505	0	511	38	9	
2	0	0	0	0	515	507	0	529	38	9	
3	0	0	0	0	494	509	0	530	38	9	
4	0	0	0	0	491	508	0	522	38	9	
5	0	0	0	0	498	506	0	512	38	9	
6	0	0	0	0	505	508	0	503	38	9	
7	0	0	0	0	506	508	0	497	39	9	
8	0	0	0	0	507	506	0	493	39	9	
9	0	0	0	0	508	505	0	491	38	9	
10	0	0	0	0	513	502	0	496	38	9	
11	0	0	0	0	514	502	0	502	38	9	
12	0	0	0	0	500	503	0	524	38	9	
13	0	0	0	0	506	504	0	530	38	9	
14	0	0	0	0	517	500	0	548	38	9	
15	0	0	0	0	513	498	0	548	38	9	
0	0	0	0	0	509	498	0	531	39	9	
1	0	0	0	0	514	499	0	519	38	9	
2	0	0	0	0	514	501	0	509	38	9	
3	0	0	0	0	507	504	0	499	38	9	
4	0	0	0	0	495	506	0	494	38	9	
5	0	0	0	0	494	504	0	495	38	9	
6	0	0	0	0	495	502	0	486	38	9	
7	0	0	0	0	501	501	0	486	38	9	
8	0	0	0	0	511	505	0	486	39	9	
9	0	0	0	0	515	508	0	482	38	9	
10	0	0	0	0	518	508	0	481	38	9	
11	0	0	0	0	506	507	0	480	38	9	
12	0	0	0	0	508	503	0	489	38	9	
13	0	0	0	0	502	499	0	516	38	9	
14	0	0	0	0	513	496	0	529	38	9	
15	0	0	0	0	519	497	0	543	38	9	
0	0	0	0	0	509	496	0	558	39	9	
1	0	0	0	0	512	499	0	548	38	9	
2	0	0	0	0	512	500	0	544	38	9	
3	0	0	0	0	507	501	0	534	38	9	
4	0	0	0	0	510	504	0	519	38	9	
5	0	0	0	0	488	505	0	512	38	9	
6	0	0	0	0	499	503	0	506	38	9	
7	0	0	0	0	499	502	0	502	39	9	
8	0	0	0	0	505	502	0	497	39	9	
9	0	0	0	0	506	501	0	495	38	9	
10	0	0	0	0	516	502	0	495	38	9	
11	0	0	0	0	519	505	0	503	38	9	
12	0	0	0	0	514	508	0	496	38	9	
13	0	0	0	0	510	508	0	496	38	9	
14	0	0	0	0	504	509	0	497	38	9	
15	0	0	0	0	511	510	0	508	39	9	
0	0	0	0	0	514	510	0	533	39	9	
1	0	0	0	0	513	508	0	539	38	9	
2	0	0	0	0	510	508	0	556	38	9	
3	0	0	0	0	515	509	0	564	38	9	
4	0	0	0	0	511	510	0	555	38	9	
5	0	0	0	0	500	509	0	542	39	9	
6	0	0	0	0	492	506	0	529	38	9	
7	0	0	0	0	486	504	0	516	39	9	
8	0	0	0	0	505	505	0	524	39	9	
9	0	0	0	0	508	505	0	537	38	9	
10	0	0	0	0	503	504	0	533	38	9	
11	0	0	0	0	516	504	0	525	38	9	
12	0	0	0	0	514	504	0	516	38	9	
13	0	0	0	0	512	505	0	519	38	9	
14	0	0	0	0	508	505	0	529	39	9	
15	0	0	0	0	508	505	0	509	38	9	
0	0	0	0	0	512	505	0	503	39	9	
1	0	0	0	0	513	503	0	502	39	9	
2	0	0	0	0	508	501	0	512	38	9	
3	0	0	0	0	511	501	0	534	38	9	
4	0	0	0	0	515	502	0	536	38	9	
5	0	0	0	0	504	502	0	527	38	9	
6	0	0	0	0	500	501	0	516	38	9	
7	0	0	0	0	497	501	0	505	38	9	
8	0	0	0	0	499	500	0	498	39	9	
9	0	0	0	0	503	500	0	498	38	9	
10	0	0	0	0	504	502	0	518	38	9	
11	0	0	0	0	504	504	0	527	38	9	
12	0	0	0	0	509	504	0	521	38	9	
13	0	0	0	0	512	505	0	513	38	9	
14	0	0	0	0	500	504	0	506	38	9	
15	0	0	0	0	509	503	0	503	38	9	
0	0	0	0	0	510	503	0	513	39	9	
1	0	0	0	0	513	502	0	525	38	9	
2	0	0	0	0	513	505	0	525	38	9	
3	0	0	0	0	519	510	0	516	38	9	
4	0	0	0	0	517	511	0	508	38	9	
5	0	0	0	0	512	509	0	499	38	9	
6	0	0	0	0	505	507	0	492	38	9	
7	0	0	0	0	494	508	0	487	38	9	
8	0	0	0	0	496	506	0	481	39	9	
9	0	0	0	0	503	504	0	477	38	9	
10	0	0	0	0	502	503	0	498	38	9	
11	0	0	0	0	500	504	0	511	38	9	
12	0	0	0	0	508	503	0	512	38	9	
13	0	0	0	0	511	501	0	509	38	9	
14	0	0	0	0	509	501	0	503	38	9	
15	0	0	0	0	510	502	0	508	38	9	
0	0	0	0	0	505	502	0	502	39	9	
1	0	0	0	0	512	502	0	508	38	9	
2	0	0	0	0	512	502	0	527	38	9	
3	0	0	0	0	515	502	0	528	38	9	
4	0	0	0	0	510	503	0	520	38	9	
5	0	0	0	0	511	505	0	514	38	9	
6	0	0	0	0	510	506	0	499	38	9	
7	0	0	0	0	495	510	0	494	38	9	
8	0	0	0	0	496	513	0	491	39	9	
9	0	0	0	0	500	512	0	510	38	9	
10	0	0	0	0	494	509	0	526	38	9	
11	0	0	0	0	508	502	0	523	38	9	
12	0	0	0	0	514	495	0	516	38	9	
13	0	0	0	0	517	495	0	506	38	9	
14	0	0	0	0	516	496	0	497	38	9	
15	0	0	0	0	509	498	0	492	39	9	
0	0	0	0	0	510	500	0	496	39	9	
1	0	0	0	0	506	500	0	512	38	9	
2	0	0	0	0	511	501	0	514	38	9	
3	0	0	0	0	517	502	0	524	38	9	
4	0	0	0	0	509	501	0	501	38	9	
5	0	0	0	0	510	500	0	495	38	9	
6	0	0	0	0	506	499	0	493	38	9	
7	0	0	0	0	508	500	0	487	38	9	
8	0	0	0	0	498	500	0	484	39	9	
9	0	0	0	0	499	501	0	483	38	9	
10	0	0	0	0	502	500	0	490	38	9	
11	0	0	0	0	506	504	0	513	38	9	
12	0	0	0	0	504	505	0	521	38	9	
13	0	0	0	0	511	505	0	539	38	9	
14	0	0	0	0	517	508	0	547	38	9	
15	0	0	0	0	512	508	0	541	38	9	
0	0	0	0	0	510	504	0	534	39	9	
1	0	0	0	0	506	503	0	523	38	9	
2	0	0	0	0	503	503	0	508	38	9	
3	0	0	0	0	512	503	0	498	38	9	
4	0	0	0	0	506	504	0	492	38	9	
5	0	0	0	0	509	503	0	486	39	9	
6	0	0	0	0	522	502	0	483	38	9	
7	0	0	0	0	513	502	0	480	38	9	
8	0	0	0	0	502	505	0	478	39	9	
9	0	0	0	0	490	506	0	476	38	9	
10	0	0	0	0	493	505	0	475	38	9	
11	0	0	0	0	505	501	0	475	38	9	
12	0	0	0	0	507	495	0	473	38	9	
13	0	0	0	0	510	490	0	489	38	9	
14	0	0	0	0	510	487	0	512	38	9	
15	0	0	0	0	511	489	0	518	38	9	
0	0	0	0	0	513	494	0	534	39	9	
1	0	0	0	0	510	501	0	537	38	9	
2	0	0	0	0	507	511	0	525	38	9	
3	0	0	0	0	511	515	0	512	38	9	
4	0	0	0	0	519	514	0	499	38	9	
5	0	0	0	0	505	515	0	489	38	9	
6	0	0	0	0	513	516	0	484	38	9	
7	0	0	0	0	512	516	0	487	38	9	
8	0	0	0	0	509	515	0	476	39	9	
9	0	0	0	0	491	513	0	475	38	9	
10	0	0	0	0	493	509	0	498	38	9	
11	0	0	0	0	498	506	0	510	38	9	
12	0	0	0	0	499	502	0	508	38	9	
13	0	0	0	0	504	499	0	503	39	9	
14	0	0	0	0	511	498	0	503	38	9	
15	0	0	0	0	511	498	0	510	39	9	
0	0	0	0	0	519	498	0	504	39	9	
1	0	0	0	0	516	498	0	515	38	9	
2	0	0	0	0	505	497	0	536	38	9	
3	0	0	0	0	509	499	0	535	38	9	
4	0	0	0	0	515	500	0	527	38	9	
5	0	0	0	0	517	504	0	515	38	9	
6	0	0	0	0	513	507	0	505	38	9	
7	0	0	0	0	505	509	0	499	38	9	
8	0	0	0	0	510	511	0	498	39	9	
9	0	0	0	0	505	512	0	516	38	9	
10	0	0	0	0	488	513	0	526	38	9	
11	0	0	0	0	498	512	0	515	38	9	
12	0	0	0	0	500	510	0	509	38	9	
13	0	0	0	0	495	506	0	504	39	9	
14	0	0	0	0	506	502	0	497	38	9	
15	0	0	0	0	512	500	0	492	38	9	
0	0	0	0	0	512	499	0	504	39	9	
1	0	0	0	0	513	497	0	519	38	9	
2	0	0	0	0	515	496	0	521	38	9	
3	0	0	0	0	506	496	0	515	38	9	
4	0	0	0	0	511	495	0	509	38	9	
5	0	0	0	0	514	496	0	500	38	9	
6	0	0	0	0	516	498	0	495	38	9	
7	0	0	0	0	511	500	0	494	38	9	
8	0	0	0	0	512	505	0	491	39	9	
9	0	0	0	0	516	508	0	488	38	9	
10	0	0	0	0	506	510	0	506	38	9	
11	0	0	0	0	490	510	0	527	38	9	
12	0	0	0	0	499	509	0	531	38	9	
13	0	0	0	0	504	507	0	526	38	9	
14	0	0	0	0	509	502	0	536	38	9	
15	0	0	0	0	508	500	0	541	38	9	
0	0	0	0	0	512	497	0	537	39	9	
1	0	0	0	0	504	495	0	532	38	9	
2	0	0	0	0	513	491	0	523	38	9	
3	0	0	0	0	510	487	0	510	38	9	
4	0	0	0	0	509	486	0	499	38	9	
5	0	0	0	0	508	489	0	492	38	9	
6	0	0	0	0	512	499	0	492	38	9	
7	0	0	0	0	517	503	0	496	38	9	
8	0	0	0	0	512	506	0	491	39	9	
9	0	0	0	0	518	508	0	494	38	9	
10	0	0	0	0	514	507	0	504	38	9	
11	0	0	0	0	500	504	0	531	38	9	
12	0	0	0	0	495	503	0	540	38	9	
13	0	0	0	0	496	504	0	533	38	9	
14	0	0	0	0	504	504	0	542	38	9	
15	0	0	0	0	502	503	0	550	38	9	
0	0	0	0	0	509	500	0	541	39	9	
1	0	0	0	0	512	499	0	528	38	9	
2	0	0	0	0	513	500	0	515	38	9	
3	0	0	0	0	514	499	0	507	38	9	
4	0	0	0	0	504	499	0	505	38	9	
5	0	0	0	0	507	498	0	498	38	9	
6	0	0	0	0	513	499	0	496	38	9	
7	0	0	0	0	511	501	0	496	38	9	
8	0	0	0	0	511	503	0	494	39	9	
9	0	0	0	0	512	504	0	490	39	9	
10	0	0	0	0	510	504	0	489	38	9	
11	0	0	0	0	512	509	0	488	38	9	
12	0	0	0	0	500	508	0	489	38	9	
13	0	0	0	0	496	505	0	507	38	9	
14	0	0	0	0	499	503	0	529	39	9	
15	0	0	0	0	504	501	0	537	38	9	
0	0	0	0	0	502	497	0	556	39	9	
1	0	0	0	0	505	493	0	561	38	9	
2	0	0	0	0	508	490	0	561	38	9	
3	0	0	0	0	514	492	0	553	38	9	
4	0	0	0	0	511	494	0	544	38	9	
5	0	0	0	0	503	496	0	531	38	9	
6	0	0	0	0	509	497	0	521	38	9	
7	0	0	0	0	519	498	0	513	38	9	
8	0	0	0	0	514	498	0	508	39	9	
9	0	0	0	0	508	499	0	520	38	9	
10	0	0	0	0	513	503	0	505	38	9	
11	0	0	0	0	512	506	0	527	38	9	
12	0	0	0	0	506	510	0	543	38	9	
13	0	0	0	0	492	511	0	540	39	9	
14	0	0	0	0	492	510	0	539	38	9	
15	0	0	0	0	498	510	0	556	38	9	
0	0	0	0	0	511	512	0	559	39	9	
1	0	0	0	0	506	513	0	552	38	9	
2	0	0	0	0	512	512	0	532	38	9	
3	0	0	0	0	516	509	0	523	38	9	
4	0	0	0	0	511	504	0	512	38	9	
5	0	0	0	0	511	502	0	505	38	9	
6	0	0	0	0	506	501	0	500	38	9	
7	0	0	0	0	503	503	0	496	39	9	
8	0	0	0	0	513	505	0	499	39	9	
9	0	0	0	0	514	507	0	521	38	9	
10	0	0	0	0	518	507	0	529	38	9	
11	0	0	0	0	510	507	0	527	38	9	
12	0	0	0	0	511	506	0	519	38	9	
13	0	0	0	0	498	506	0	519	38	9	
14	0	0	0	0	492	506	0	523	38	9	
15	0	0	0	0	492	504	0	518	38	9	
0	0	0	0	0	501	499	0	529	39	9	
1	0	0	0	0	508	495	0	547	38	9	
2	0	0	0	0	507	491	0	545	39	9	
3	0	0	0	0	518	491	0	536	38	9	
4	0	0	0	0	519	492	0	527	38	9	
5	0	0	0	0	514	495	0	518	38	9	
6	0	0	0	0	506	498	0	512	38	9	
7	0	0	0	0	510	499	0	509	38	9	
8	0	0	0	0	512	500	0	507	39	9	
9	0	0	0	0	515	502	0	503	38	9	
10	0	0	0	0	511	503	0	519	38	9	
11	0	0	0	0	512	504	0	542	38	9	
12	0	0	0	0	510	503	0	548	38	9	
13	0	0	0	0	508	504	0	541	38	9	
14	0	0	0	0	492	503	0	553	38	9	
15	0	0	0	0	492	500	0	556	38	9	
0	0	0	0	0	500	499	0	542	39	9	
1	0	0	0	0	506	498	0	529	38	9	
2	0	0	0	0	501	498	0	518	38	9	
3	0	0	0	0	508	498	0	508	38	9	
4	0	0	0	0	515	497	0	502	38	9	
5	0	0	0	0	518	497	0	497	39	9	
6	0	0	0	0	509	498	0	496	38	9	
7	0	0	0	0	508	499	0	495	38	9	
8	0	0	0	0	511	497	0	489	39	9	
9	0	0	0	0	514	496	0	487	38	9	
10	0	0	0	0	513	497	0	486	38	9	
11	0	0	0	0	514	499	0	488	38	9	
12	0	0	0	0	512	499	0	492	38	9	
13	0	0	0	0	503	500	0	511	38	9	
14	0	0	0	0	507	502	0	529	38	9	
15	0	0	0	0	494	501	0	540	38	9	
0	0	0	0	0	496	499	0	555	39	9	
1	0	0	0	0	502	496	0	551	38	9	
2	0	0	0	0	504	492	0	547	38	9	
3	0	0	0	0	506	488	0	536	38	9	
4	0	0	0	0	511	486	0	525	38	9	
5	0	0	0	0	520	488	0	515	38	9	
6	0	0	0	0	512	489	0	508	38	9	
7	0	0	0	0	507	488	0	504	39	9	
8	0	0	0	0	510	487	0	497	39	9	
9	0	0	0	0	512	487	0	496	38	9	
10	0	0	0	0	513	489	0	494	38	9	
11	0	0	0	0	513	491	0	496	38	9	
12	0	0	0	0	511	491	0	520	38	9	
13	0	0	0	0	512	497	0	536	38	9	
14	0	0	0	0	508	503	0	547	38	9	
15	0	0	0	0	504	508	0	565	38	9	
0	0	0	0	0	499	508	0	559	39	9	
1	0	0	0	0	493	507	0	545	38	9	
2	0	0	0	0	499	505	0	530	38	9	
3	0	0	0	0	505	502	0	519	39	9	
4	0	0	0	0	502	498	0	514	38	9	
5	0	0	0	0	516	497	0	508	38	9	
6	0	0	0	0	516	498	0	506	38	9	
7	0	0	0	0	517	500	0	504	38	9	
8	0	0	0	0	504	500	0	511	39	9	
9	0	0	0	0	504	497	0	530	38	9	
10	0	0	0	0	515	496	0	537	38	9	
11	0	0	0	0	522	496	0	528	38	9	
12	0	0	0	0	518	498	0	519	38	9	
13	0	0	0	0	513	499	0	528	38	9	
14	0	0	0	0	508	500	0	518	38	9	
15	0	0	0	0	509	503	0	515	39	9	
0	0	0	0	0	489	504	0	532	39	9	
1	0	0	0	0	492	504	0	541	38	9	
2	0	0	0	0	502	507	0	537	38	9	
3	0	0	0	0	512	505	0	529	38	9	
4	0	0	0	0	504	503	0	518	38	9	
5	0	0	0	0	504	501	0	508	38	9	
6	0	0	0	0	506	501	0	503	38	9	
7	0	0	0	0	509	502	0	495	39	9	
8	0	0	0	0	512	504	0	492	39	9	
9	0	0	0	0	506	505	0	489	38	9	
10	0	0	0	0	505	507	0	509	39	9	
11	0	0	0	0	512	508	0	527	38	9	
12	0	0	0	0	514	507	0	526	38	9	
13	0	0	0	0	518	501	0	519	39	9	
14	0	0	0	0	515	497	0	510	38	9	
15	0	0	0	0	513	501	0	501	38	9	
0	0	0	0	0	515	504	0	510	39	9	
1	0	0	0	0	491	501	0	524	39	9	
2	0	0	0	0	493	499	0	520	38	9	
3	0	0	0	0	498	500	0	514	38	9	
4	0	0	0	0	508	499	0	508	38	9	
5	0	0	0	0	508	496	0	499	38	9	
6	0	0	0	0	509	496	0	494	38	9	
7	0	0	0	0	509	499	0	493	38	9	
8	0	0	0	0	512	499	0	489	39	9	
9	0	0	0	0	515	499	0	485	38	9	
10	0	0	0	0	504	498	0	497	38	9	
11	0	0	0	0	514	502	0	519	38	9	
12	0	0	0	0	510	506	0	524	38	9	
13	0	0	0	0	518	509	0	516	38	9	
14	0	0	0	0	507	512	0	528	38	9	
15	0	0	0	0	516	514	0	529	38	9	
0	0	0	0	0	519	514	0	527	39	9	
1	0	0	0	0	495	510	0	529	38	9	
2	0	0	0	0	494	505	0	507	38	9	
3	0	0	0	0	490	504	0	497	38	9	
4	0	0	0	0	504	502	0	491	38	9	
5	0	0	0	0	503	500	0	483	38	9	
6	0	0	0	0	505	499	0	481	39	9	
7	0	0	0	0	515	500	0	478	38	9	
8	0	0	0	0	520	502	0	476	39	9	
9	0	0	0	0	515	502	0	475	38	9	
10	0	0	0	0	501	501	0	473	38	9	
11	0	0	0	0	502	500	0	472	38	9	
12	0	0	0	0	512	504	0	473	38	9	
13	0	0	0	0	509	504	0	469	38	9	
14	0	0	0	0	512	504	0	484	38	9	
15	0	0	0	0	519	506	0	508	39	9	
0	0	0	0	0	512	507	0	513	39	9	
1	0	0	0	0	508	509	0	531	38	9	
2	0	0	0	0	494	511	0	533	38	9	
3	0	0	0	0	494	509	0	521	38	9	
4	0	0	0	0	495	507	0	508	38	9	
5	0	0	0	0	505	502	0	496	38	9	
6	0	0	0	0	501	499	0	487	38	9	
7	0	0	0	0	511	498	0	483	38	9	
8	0	0	0	0	515	501	0	492	39	9	
9	0	0	0	0	515	504	0	507	39	9	
10	0	0	0	0	513	505	0	509	38	9	
11	0	0	0	0	508	506	0	500	38	9	
12	0	0	0	0	508	505	0	492	38	9	
13	0	0	0	0	513	508	0	496	38	9	
14	0	0	0	0	508	510	0	495	38	9	
15	0	0	0	0	512	512	0	508	38	9	
0	0	0	0	0	514	516	0	487	39	9	
1	0	0	0	0	509	521	0	484	38	9	
2	0	0	0	0	504	524	0	499	38	9	
3	0	0	0	0	492	524	0	518	38	9	
4	0	0	0	0	500	524	0	519	38	9	
5	0	0	0	0	504	525	0	511	38	9	
6	0	0	0	0	503	525	0	501	38	9	
7	0	0	0	0	506	525	0	496	38	9	
8	0	0	0	0	512	525	0	487	39	9	
9	0	0	0	0	513	527	0	487	38	9	
10	0	0	0	0	508	529	0	512	39	9	
11	0	0	0	0	510	529	0	517	38	9	
12	0	0	0	0	512	528	0	513	38	9	
13	0	0	0	0	508	529	0	508	38	9	
14	0	0	0	0	521	531	0	500	38	9	
15	0	0	0	0	512	532	0	494	38	9	
0	0	0	0	0	510	534	0	488	39	9	
1	0	0	0	0	512	537	0	482	38	9	
2	0	0	0	0	512	541	0	479	38	9	
3	0	0	0	0	495	543	0	485	38	9	
4	0	0	0	0	486	543	0	508	38	9	
5	0	0	0	0	496	540	0	524	38	9	
6	0	0	0	0	506	536	0	538	38	9	
7	0	0	0	0	507	533	0	546	39	9	
8	0	0	0	0	508	529	0	534	39	9	
9	0	0	0	0	515	528	0	521	39	9	
10	0	0	0	0	511	529	0	517	38	9	
11	0	0	0	0	514	533	0	506	38	9	
12	0	0	0	0	513	540	0	496	38	9	
13	0	0	0	0	509	540	0	489	38	9	
14	0	0	0	0	507	537	0	489	38	9	
15	0	0	0	0	511	536	0	481	39	9	
0	0	0	0	0	512	537	0	479	39	9	
1	0	0	0	0	509	535	0	487	38	9	
2	0	0	0	0	512	533	0	511	39	9	
3	0	0	0	0	505	531	0	516	38	9	
4	0	0	0	0	498	527	0	511	38	9	
5	0	0	0	0	492	520	0	504	38	9	
6	0	0	0	0	502	515	0	497	38	9	
7	0	0	0	0	504	513	0	496	38	9	
8	0	0	0	0	505	511	0	513	39	9	
9	0	0	0	0	509	508	0	520	38	9	
10	0	0	0	0	513	508	0	514	38	9	
11	0	0	0	0	511	507	0	507	38	9	
12	0	0	0	0	508	506	0	499	38	9	
13	0	0	0	0	510	505	0	494	38	9	
14	0	0	0	0	507	504	0	490	38	9	
15	0	0	0	0	511	502	0	485	38	9	
0	0	0	0	0	510	502	0	482	39	9	
1	0	0	0	0	513	503	0	484	38	9	
2	0	0	0	0	514	503	0	506	38	9	
3	0	0	0	0	500	502	0	518	38	9	
4	0	0	0	0	514	500	0	514	38	9	
5	0	0	0	0	488	499	0	509	38	9	
6	0	0	0	0	491	499	0	504	38	9	
7	0	0	0	0	499	499	0	500	38	9	
8	0	0	0	0	510	499	0	516	39	9	
9	0	0	0	0	514	499	0	533	38	9	
10	0	0	0	0	509	497	0	527	38	9	
11	0	0	0	0	514	498	0	525	38	9	
12	0	0	0	0	520	497	0	526	38	9	
13	0	0	0	0	516	499	0	517	38	9	
14	0	0	0	0	509	500	0	509	38	9	
15	0	0	0	0	507	500	0	504	38	9	
0	0	0	0	0	512	501	0	500	39	9	
1	0	0	0	0	511	502	0	497	39	9	
2	0	0	0	0	503	504	0	496	38	9	
3	0	0	0	0	510	505	0	511	38	9	
4	0	0	0	0	510	504	0	532	38	9	
5	0	0	0	0	493	504	0	533	38	9	
6	0	0	0	0	493	500	0	529	38	9	
7	0	0	0	0	492	497	0	551	38	9	
8	0	0	0	0	499	494	0	545	39	9	
9	0	0	0	0	507	495	0	536	38	9	
10	0	0	0	0	511	496	0	526	38	9	
11	0	0	0	0	520	497	0	515	38	9	
12	0	0	0	0	521	496	0	507	38	9	
13	0	0	0	0	510	498	0	501	38	9	
14	0	0	0	0	508	499	0	499	38	9	
15	0	0	0	0	506	498	0	502	39	9	
0	0	0	0	0	511	498	0	496	39	9	
1	0	0	0	0	509	499	0	517	38	9	
2	0	0	0	0	517	501	0	536	38	9	
3	0	0	0	0	515	504	0	536	38	9	
4	0	0	0	0	515	505	0	530	38	9	
5	0	0	0	0	505	507	0	520	38	9	
6	0	0	0	0	495	506	0	513	38	9	
7	0	0	0	0	496	504	0	507	38	9	
8	0	0	0	0	501	503	0	512	39	9	
9	0	0	0	0	504	499	0	530	38	9	
10	0	0	0	0	507	498	0	533	38	9	
11	0	0	0	0	509	498	0	524	38	9	
12	0	0	0	0	518	500	0	518	38	9	
13	0	0	0	0	510	502	0	519	38	9	
14	0	0	0	0	516	504	0	519	38	9	
15	0	0	0	0	510	506	0	518	39	9	
0	0	0	0	0	505	505	0	536	39	9	
1	0	0	0	0	509	505	0	548	38	9	
2	0	0	0	0	511	503	0	546	38	9	
3	0	0	0	0	514	505	0	532	38	9	
4	0	0	0	0	512	508	0	523	38	9	
5	0	0	0	0	512	508	0	516	38	9	
6	0	0	0	0	505	506	0	506	38	9	
7	0	0	0	0	493	505	0	501	39	9	
8	0	0	0	0	502	506	0	498	39	9	
9	0	0	0	0	501	506	0	496	38	9	
10	0	0	0	0	499	504	0	518	38	9	
11	0	0	0	0	499	500	0	535	38	9	
12	0	0	0	0	514	496	0	535	38	9	
13	0	0	0	0	513	496	0	527	38	9	
14	0	0	0	0	511	496	0	517	38	9	
15	0	0	0	0	510	497	0	511	38	9	
0	0	0	0	0	506	503	0	518	39	9	
1	0	0	0	0	513	504	0	531	39	9	
2	0	0	0	0	513	503	0	530	38	9	
3	0	0	0	0	515	506	0	523	38	9	
4	0	0	0	0	511	510	0	513	38	9	
5	0	0	0	0	510	513	0	503	38	9	
6	0	0	0	0	515	517	0	496	38	9	
7	0	0	0	0	503	520	0	492	39	9	
8	0	0	0	0	487	515	0	485	39	9	
9	0	0	0	0	499	512	0	481	38	9	
10	0	0	0	0	507	506	0	480	39	9	
11	0	0	0	0	506	498	0	483	39	9	
12	0	0	0	0	504	492	0	483	38	9	
13	0	0	0	0	510	487	0	483	38	9	
14	0	0	0	0	512	486	0	484	38	9	
15	0	0	0	0	511	488	0	481	39	9	
0	0	0	0	0	510	495	0	477	39	9	
1	0	0	0	0	510	499	0	474	38	9	
2	0	0	0	0	513	502	0	474	38	9	
3	0	0	0	0	513	502	0	477	38	9	
4	0	0	0	0	508	502	0	476	38	9	
5	0	0	0	0	505	500	0	476	38	9	
6	0	0	0	0	507	498	0	479	38	9	
7	0	0	0	0	507	496	0	476	38	9	
8	0	0	0	0	496	491	0	475	39	9	
9	0	0	0	0	495	485	0	489	38	9	
10	0	0	0	0	499	477	0	516	39	9	
11	0	0	0	0	500	472	0	522	38	9	
12	0	0	0	0	506	469	0	517	38	9	
13	0	0	0	0	512	468	0	510	38	9	
14	0	0	0	0	514	467	0	504	38	9	
15	0	0	0	0	517	468	0	493	39	9	
0	0	0	0	0	514	470	0	485	39	9	
1	0	0	0	0	504	477	0	479	38	9	
2	0	0	0	0	511	487	0	475	38	9	
3	0	0	0	0	508	496	0	476	38	9	
4	0	0	0	0	514	510	0	478	38	9	
5	0	0	0	0	509	525	0	487	38	9	
6	0	0	0	0	515	540	0	514	38	9	
7	0	0	0	0	513	556	0	524	39	9	
8	0	0	0	0	503	573	0	538	39	9	
9	0	0	0	0	490	588	0	572	38	9	
10	0	0	0	0	500	603	0	555	38	9	
11	0	0	0	0	505	615	0	568	38	9	
12	0	0	0	0	503	628	0	561	38	9	
13	0	0	0	0	508	645	0	562	38	9	
14	0	0	0	0	510	665	0	564	38	9	
15	0	0	0	0	516	689	0	555	38	9	
0	0	0	0	0	508	713	0	563	39	9	
1	0	0	0	0	507	738	0	560	38	9	
2	0	0	0	0	509	762	0	553	38	9	
3	0	0	0	0	505	783	0	540	38	9	
4	0	0	0	0	514	800	0	526	38	9	
5	0	0	0	0	518	820	0	509	38	9	
6	0	0	0	0	508	845	0	498	38	9	
7	0	0	0	0	512	865	0	491	39	9	
8	0	0	0	0	516	883	0	484	39	9	
9	0	0	0	0	499	896	0	482	38	9	
10	0	0	0	0	489	905	0	480	38	9	
11	0	0	0	0	500	911	0	503	38	9	
12	0	0	0	0	504	914	0	513	38	9	
13	0	0	0	0	508	912	0	512	38	9	
14	0	0	0	0	512	906	0	510	38	9	
15	0	0	0	0	512	900	0	523	38	9	
0	0	0	0	0	518	898	0	526	39	9	
1	0	0	0	0	504	895	0	514	38	9	
2	0	0	0	0	506	886	0	505	38	9	
3	0	0	0	0	498	873	0	493	38	9	
4	0	0	0	0	507	855	0	484	38	9	
5	0	0	0	0	518	835	0	479	38	9	
6	0	0	0	0	520	814	0	475	38	9	
7	0	0	0	0	511	787	0	473	39	9	
8	0	0	0	0	509	754	0	475	39	9	
9	0	0	0	0	510	718	0	497	38	9	
10	0	0	0	0	498	675	0	505	38	9	
11	0	0	0	0	491	630	0	502	38	9	
12	0	0	0	0	495	588	0	496	38	9	
13	0	0	0	0	504	552	0	494	38	9	
14	0	0	0	0	507	521	0	497	38	9	
15	0	0	0	0	511	493	0	493	39	9	
0	0	0	0	0	519	473	0	505	39	9	
1	0	0	0	0	518	457	0	519	38	9	
2	0	0	0	0	507	443	0	517	38	9	
3	0	0	0	0	502	431	0	508	38	9	
4	0	0	0	0	512	419	0	500	38	9	
5	0	0	0	0	508	408	0	491	38	9	
6	0	0	0	0	506	398	0	488	39	9	
7	0	0	0	0	506	389	0	487	39	9	
8	0	0	0	0	513	382	0	483	39	9	
9	0	0	0	0	507	379	0	483	38	9	
10	0	0	0	0	510	380	0	500	38	9	
11	0	0	0	0	499	378	0	524	38	9	
12	0	0	0	0	497	375	0	527	38	9	
13	0	0	0	0	504	374	0	521	38	9	
14	0	0	0	0	501	373	0	534	38	9	
15	0	0	0	0	505	373	0	534	38	9	
0	0	0	0	0	517	370	0	523	39	9	
1	0	0	0	0	514	369	0	512	38	9	
2	0	0	0	0	515	374	0	499	38	9	
3	0	0	0	0	509	377	0	493	38	9	
4	0	0	0	0	505	382	0	488	38	9	
5	0	0	0	0	508	384	0	487	38	9	
6	0	0	0	0	512	387	0	484	38	9	
7	0	0	0	0	515	391	0	483	38	9	
8	0	0	0	0	510	393	0	483	39	9	
9	0	0	0	0	512	394	0	481	38	9	
10	0	0	0	0	508	395	0	482	39	9	
11	0	0	0	0	498	396	0	485	38	9	
12	0	0	0	0	492	393	0	488	38	9	
13	0	0	0	0	490	387	0	508	38	9	
14	0	0	0	0	506	388	0	526	38	9	
15	0	0	0	0	509	391	0	537	38	9	
0	0	0	0	0	511	391	0	556	39	9	
1	0	0	0	0	505	390	0	551	38	9	
2	0	0	0	0	515	388	0	548	38	9	
3	0	0	0	0	514	387	0	537	38	9	
4	0	0	0	0	506	388	0	524	38	9	
5	0	0	0	0	507	391	0	512	38	9	
6	0	0	0	0	511	399	0	503	38	9	
7	0	0	0	0	515	406	0	502	38	9	
8	0	0	0	0	509	411	0	491	39	9	
9	0	0	0	0	504	411	0	487	38	9	
10	0	0	0	0	514	409	0	492	38	9	
11	0	0	0	0	509	414	0	521	38	9	
12	0	0	0	0	495	416	0	531	38	9	
13	0	0	0	0	498	415	0	528	38	9	
14	0	0	0	0	500	412	0	537	38	9	
15	0	0	0	0	499	409	0	548	38	9	
0	0	0	0	0	506	410	0	545	39	9	
1	0	0	0	0	510	412	0	533	38	9	
2	0	0	0	0	518	414	0	523	38	9	
3	0	0	0	0	513	414	0	512	38	9	
4	0	0	0	0	509	414	0	507	38	9	
5	0	0	0	0	510	413	0	502	38	9	
6	0	0	0	0	511	412	0	498	38	9	
7	0	0	0	0	517	413	0	495	38	9	
8	0	0	0	0	506	415	0	503	39	9	
9	0	0	0	0	511	418	0	521	38	9	
10	0	0	0	0	517	424	0	525	38	9	
11	0	0	0	0	507	430	0	520	38	9	
12	0	0	0	0	514	432	0	515	38	9	
13	0	0	0	0	493	429	0	514	38	9	
14	0	0	0	0	490	422	0	514	38	9	
15	0	0	0	0	500	417	0	510	38	9	
0	0	0	0	0	503	419	0	505	39	9	
1	0	0	0	0	511	419	0	499	38	9	
2	0	0	0	0	511	420	0	508	38	9	
3	0	0	0	0	511	423	0	530	38	9	
4	0	0	0	0	506	428	0	535	38	9	
5	0	0	0	0	518	431	0	528	38	9	
6	0	0	0	0	507	431	0	519	38	9	
7	0	0	0	0	510	430	0	513	39	9	
8	0	0	0	0	516	431	0	511	39	9	
9	0	0	0	0	510	433	0	530	38	9	
10	0	0	0	0	511	435	0	543	38	9	
11	0	0	0	0	515	439	0	534	38	9	
12	0	0	0	0	511	447	0	526	38	9	
13	0	0	0	0	505	453	0	519	38	9	
14	0	0	0	0	486	454	0	512	38	9	
15	0	0	0	0	503	451	0	508	38	9	
0	0	0	0	0	499	453	0	519	39	9	
1	0	0	0	0	500	454	0	536	38	9	
2	0	0	0	0	508	454	0	534	38	9	
3	0	0	0	0	517	455	0	528	38	9	
4	0	0	0	0	516	452	0	523	38	9	
5	0	0	0	0	503	449	0	511	38	9	
6	0	0	0	0	506	448	0	505	38	9	
7	0	0	0	0	508	448	0	503	38	9	
8	0	0	0	0	506	451	0	499	39	9	
9	0	0	0	0	515	454	0	495	38	9	
10	0	0	0	0	509	456	0	508	38	9	
11	0	0	0	0	513	457	0	532	38	9	
12	0	0	0	0	515	458	0	532	38	9	
13	0	0	0	0	509	460	0	528	38	9	
14	0	0	0	0	496	460	0	540	38	9	
15	0	0	0	0	500	459	0	544	38	9	
0	0	0	0	0	495	458	0	539	39	9	
1	0	0	0	0	507	456	0	535	38	9	
2	0	0	0	0	504	454	0	525	38	9	
3	0	0	0	0	505	454	0	517	38	9	
4	0	0	0	0	515	453	0	508	38	9	
5	0	0	0	0	515	454	0	503	39	9	
6	0	0	0	0	514	455	0	501	38	9	
7	0	0	0	0	502	456	0	498	38	9	
8	0	0	0	0	510	457	0	496	39	9	
9	0	0	0	0	516	457	0	494	38	9	
10	0	0	0	0	515	458	0	496	39	9	
11	0	0	0	0	517	459	0	493	38	9	
12	0	0	0	0	511	461	0	492	38	9	
13	0	0	0	0	513	463	0	492	38	9	
14	0	0	0	0	507	464	0	510	38	9	
15	0	0	0	0	490	464	0	528	38	9	
0	0	0	0	0	491	464	0	534	39	9	
1	0	0	0	0	499	467	0	552	38	9	
2	0	0	0	0	507	471	0	554	38	9	
3	0	0	0	0	511	469	0	540	38	9	
4	0	0	0	0	508	465	0	527	38	9	
5	0	0	0	0	513	465	0	514	38	9	
6	0	0	0	0	516	467	0	504	38	9	
7	0	0	0	0	507	470	0	497	39	9	
8	0	0	0	0	503	469	0	508	39	9	
9	0	0	0	0	503	467	0	524	38	9	
10	0	0	0	0	514	471	0	524	38	9	
11	0	0	0	0	516	474	0	517	38	9	
12	0	0	0	0	508	475	0	511	38	9	
13	0	0	0	0	512	475	0	515	38	9	
14	0	0	0	0	504	475	0	510	38	9	
15	0	0	0	0	503	473	0	505	38	9	
0	0	0	0	0	496	468	0	500	39	9	
1	0	0	0	0	509	461	0	496	38	9	
2	0	0	0	0	503	461	0	510	38	9	
3	0	0	0	0	503	465	0	531	38	9	
4	0	0	0	0	509	468	0	536	38	9	
5	0	0	0	0	509	475	0	527	38	9	
6	0	0	0	0	516	478	0	517	38	9	
7	0	0	0	0	509	479	0	513	38	9	
8	0	0	0	0	509	480	0	501	39	9	
9	0	0	0	0	504	482	0	503	38	9	
10	0	0	0	0	505	483	0	523	38	9	
11	0	0	0	0	516	485	0	531	38	9	
12	0	0	0	0	511	487	0	525	38	9	
13	0	0	0	0	512	489	0	516	38	9	
14	0	0	0	0	516	491	0	508	38	9	
15	0	0	0	0	513	492	0	499	38	9	
0	0	0	0	0	498	492	0	493	39	9	
1	0	0	0	0	492	487	0	487	38	9	
2	0	0	0	0	501	486	0	497	38	9	
3	0	0	0	0	502	488	0	521	38	9	
4	0	0	0	0	504	487	0	532	38	9	
5	0	0	0	0	512	487	0	549	38	9	
6	0	0	0	0	523	486	0	551	38	9	
7	0	0	0	0	513	487	0	537	38	9	
8	0	0	0	0	508	488	0	526	39	9	
9	0	0	0	0	499	489	0	524	38	9	
10	0	0	0	0	508	489	0	512	38	9	
11	0	0	0	0	510	487	0	502	38	9	
12	0	0	0	0	522	489	0	498	38	9	
13	0	0	0	0	506	495	0	491	38	9	
14	0	0	0	0	511	499	0	489	38	9	
15	0	0	0	0	512	500	0	486	39	9	
0	0	0	0	0	507	497	0	484	39	9	
1	0	0	0	0	491	494	0	483	38	9	
2	0	0	0	0	495	492	0	483	38	9	
3	0	0	0	0	497	489	0	480	38	9	
4	0	0	0	0	508	487	0	481	38	9	
5	0	0	0	0	506	485	0	497	38	9	
6	0	0	0	0	512	482	0	518	38	9	
7	0	0	0	0	518	483	0	524	38	9	
8	0	0	0	0	512	486	0	542	39	9	
9	0	0	0	0	517	489	0	540	38	9	
10	0	0	0	0	507	491	0	527	38	9	
11	0	0	0	0	506	493	0	514	38	9	
12	0	0	0	0	514	495	0	502	38	9	
13	0	0	0	0	510	501	0	495	38	9	
14	0	0	0	0	512	504	0	490	38	9	
15	0	0	0	0	520	504	0	488	38	9	
0	0	0	0	0	511	503	0	483	39	9	
1	0	0	0	0	502	504	0	484	39	9	
2	0	0	0	0	498	502	0	510	39	9	
3	0	0	0	0	500	499	0	516	38	9	
4	0	0	0	0	499	496	0	514	38	9	
5	0	0	0	0	502	492	0	519	38	9	
6	0	0	0	0	509	489	0	502	38	9	
7	0	0	0	0	510	487	0	497	39	9	
8	0	0	0	0	510	486	0	511	39	9	
9	0	0	0	0	507	487	0	521	38	9	
10	0	0	0	0	507	489	0	519	38	9	
11	0	0	0	0	505	493	0	511	38	9	
12	0	0	0	0	511	497	0	504	38	9	
13	0	0	0	0	509	499	0	508	38	9	
14	0	0	0	0	510	499	0	503	38	9	
15	0	0	0	0	515	500	0	500	39	9	
0	0	0	0	0	513	504	0	495	39	9	
1	0	0	0	0	514	504	0	493	38	9	
2	0	0	0	0	492	504	0	515	38	9	
3	0	0	0	0	489	509	0	525	38	9	
4	0	0	0	0	503	507	0	524	38	9	
5	0	0	0	0	511	504	0	518	38	9	
6	0	0	0	0	507	502	0	508	38	9	
7	0	0	0	0	501	496	0	501	38	9	
8	0	0	0	0	518	494	0	495	39	9	
9	0	0	0	0	512	496	0	505	39	9	
10	0	0	0	0	512	501	0	525	38	9	
11	0	0	0	0	503	503	0	530	38	9	
12	0	0	0	0	515	503	0	524	38	9	
13	0	0	0	0	512	502	0	516	38	9	
14	0	0	0	0	512	502	0	507	39	9	
15	0	0	0	0	510	502	0	507	38	9	
0	0	0	0	0	515	504	0	524	39	9	
1	0	0	0	0	512	505	0	528	38	9	
2	0	0	0	0	505	504	0	520	38	9	
3	0	0	0	0	487	504	0	511	38	9	
4	0	0	0	0	496	503	0	503	38	9	
5	0	0	0	0	504	499	0	496	38	9	
6	0	0	0	0	510	495	0	491	38	9	
7	0	0	0	0	507	495	0	488	39	9	
8	0	0	0	0	511	496	0	484	39	9	
9	0	0	0	0	513	497	0	488	38	9	
10	0	0	0	0	507	500	0	518	38	9	
11	0	0	0	0	508	503	0	520	38	9	
12	0	0	0	0	504	504	0	516	38	9	
13	0	0	0	0	509	505	0	518	38	9	
14	0	0	0	0	519	506	0	519	38	9	
15	0	0	0	0	510	507	0	509	38	9	
0	0	0	0	0	511	509	0	524	39	9	
1	0	0	0	0	519	512	0	537	38	9	
2	0	0	0	0	508	514	0	535	38	9	
3	0	0	0	0	504	518	0	523	38	9	
4	0	0	0	0	493	519	0	512	38	9	
5	0	0	0	0	496	516	0	503	38	9	
6	0	0	0	0	508	513	0	494	38	9	
7	0	0	0	0	502	513	0	490	39	9	
8	0	0	0	0	504	511	0	488	39	9	
9	0	0	0	0	508	510	0	490	38	9	
10	0	0	0	0	512	508	0	505	38	9	
11	0	0	0	0	506	508	0	520	38	9	
12	0	0	0	0	509	505	0	521	38	9	
13	0	0	0	0	510	508	0	518	38	9	
14	0	0	0	0	508	509	0	508	38	9	
15	0	0	0	0	511	511	0	502	39	9	
0	0	0	0	0	514	511	0	511	39	9	
1	0	0	0	0	512	510	0	524	38	9	
2	0	0	0	0	510	514	0	523	38	9	
3	0	0	0	0	506	517	0	518	38	9	
4	0	0	0	0	496	515	0	512	38	9	
5	0	0	0	0	495	511	0	502	38	9	
6	0	0	0	0	507	505	0	497	38	9	
7	0	0	0	0	506	502	0	494	39	9	
8	0	0	0	0	512	499	0	492	39	9	
9	0	0	0	0	509	497	0	511	38	9	
10	0	0	0	0	514	500	0	530	38	9	
11	0	0	0	0	512	505	0	532	39	9	
12	0	0	0	0	511	506	0	523	38	9	
13	0	0	0	0	503	507	0	516	38	9	
14	0	0	0	0	502	506	0	525	39	9	
15	0	0	0	0	515	509	0	511	38	9	
0	0	0	0	0	515	510	0	517	39	9	
1	0	0	0	0	512	510	0	536	39	9	
2	0	0	0	0	515	507	0	538	38	9	
3	0	0	0	0	512	503	0	527	38	9	
4	0	0	0	0	510	504	0	518	38	9	
5	0	0	0	0	490	503	0	509	38	9	
6	0	0	0	0	494	502	0	509	38	9	
7	0	0	0	0	499	500	0	499	39	9	
8	0	0	0	0	510	496	0	497	39	9	
9	0	0	0	0	506	492	0	496	38	9	
10	0	0	0	0	516	489	0	506	38	9	
11	0	0	0	0	508	487	0	532	38	9	
12	0	0	0	0	511	484	0	542	38	9	
13	0	0	0	0	511	482	0	566	38	9	
14	0	0	0	0	511	481	0	566	38	9	
15	0	0	0	0	508	483	0	555	39	9	
0	0	0	0	0	506	486	0	540	39	9	
1	0	0	0	0	516	486	0	528	38	9	
2	0	0	0	0	503	486	0	513	38	9	
3	0	0	0	0	511	489	0	507	38	9	
4	0	0	0	0	503	493	0	503	38	9	
5	0	0	0	0	497	495	0	502	38	9	
6	0	0	0	0	490	492	0	497	38	9	
7	0	0	0	0	504	485	0	497	38	9	
8	0	0	0	0	510	478	0	508	39	9	
9	0	0	0	0	507	475	0	488	39	9	
10	0	0	0	0	513	472	0	488	38	9	
11	0	0	0	0	510	470	0	491	38	9	
12	0	0	0	0	518	470	0	515	38	9	
13	0	0	0	0	516	471	0	530	38	9	
14	0	0	0	0	508	473	0	543	38	9	
15	0	0	0	0	508	475	0	559	39	9	
0	0	0	0	0	510	476	0	559	39	9	
1	0	0	0	0	513	475	0	553	38	9	
2	0	0	0	0	516	471	0	541	38	9	
3	0	0	0	0	517	467	0	528	38	9	
4	0	0	0	0	510	465	0	520	38	9	
5	0	0	0	0	508	462	0	509	38	9	
6	0	0	0	0	502	460	0	502	38	9	
7	0	0	0	0	496	457	0	499	39	9	
8	0	0	0	0	491	453	0	496	39	9	
9	0	0	0	0	513	453	0	496	38	9	
10	0	0	0	0	504	454	0	494	38	9	
11	0	0	0	0	506	454	0	494	38	9	
12	0	0	0	0	520	454	0	494	38	9	
13	0	0	0	0	512	452	0	492	38	9	
14	0	0	0	0	510	451	0	499	38	9	
15	0	0	0	0	505	448	0	525	39	9	
0	0	0	0	0	513	448	0	542	39	9	
1	0	0	0	0	513	448	0	547	38	9	
2	0	0	0	0	523	449	0	566	38	9	
3	0	0	0	0	511	453	0	563	38	9	
4	0	0	0	0	509	455	0	552	38	9	
5	0	0	0	0	506	454	0	536	38	9	
6	0	0	0	0	511	451	0	524	38	9	
7	0	0	0	0	491	447	0	515	39	9	
8	0	0	0	0	492	441	0	516	39	9	
9	0	0	0	0	496	440	0	532	38	9	
10	0	0	0	0	509	442	0	540	38	9	
11	0	0	0	0	506	442	0	537	38	9	
12	0	0	0	0	513	439	0	540	38	9	
13	0	0	0	0	515	440	0	537	38	9	
14	0	0	0	0	516	441	0	530	39	9	
15	0	0	0	0	507	442	0	523	38	9	
0	0	0	0	0	508	444	0	515	39	9	
1	0	0	0	0	505	448	0	521	38	9	
2	0	0	0	0	512	449	0	544	38	9	
3	0	0	0	0	512	451	0	551	38	9	
4	0	0	0	0	511	452	0	542	38	9	
5	0	0	0	0	520	454	0	532	38	9	
6	0	0	0	0	511	456	0	523	38	9	
7	0	0	0	0	503	458	0	516	38	9	
8	0	0	0	0	495	457	0	512	39	9	
9	0	0	0	0	491	456	0	530	38	9	
10	0	0	0	0	498	454	0	545	38	9	
11	0	0	0	0	502	451	0	542	38	9	
12	0	0	0	0	511	447	0	535	38	9	
13	0	0	0	0	518	444	0	525	38	9	
14	0	0	0	0	516	444	0	516	38	9	
15	0	0	0	0	516	444	0	510	38	9	
0	0	0	0	0	508	444	0	514	39	9	
1	0	0	0	0	501	446	0	530	38	9	
2	0	0	0	0	499	451	0	533	38	9	
3	0	0	0	0	511	455	0	528	38	9	
4	0	0	0	0	520	456	0	519	38	9	
5	0	0	0	0	514	458	0	512	38	9	
6	0	0	0	0	513	460	0	508	38	9	
7	0	0	0	0	507	462	0	503	38	9	
8	0	0	0	0	497	462	0	499	39	9	
9	0	0	0	0	493	460	0	495	38	9	
10	0	0	0	0	491	456	0	502	38	9	
11	0	0	0	0	505	453	0	528	38	9	
12	0	0	0	0	505	449	0	533	38	9	
13	0	0	0	0	505	449	0	549	38	9	
14	0	0	0	0	513	451	0	554	38	9	
15	0	0	0	0	513	453	0	540	39	9	
0	0	0	0	0	507	455	0	519	39	9	
1	0	0	0	0	506	456	0	500	38	9	
2	0	0	0	0	508	455	0	490	38	9	
3	0	0	0	0	518	454	0	496	38	9	
4	0	0	0	0	516	453	0	499	38	9	
5	0	0	0	0	504	458	0	499	39	9	
6	0	0	0	0	513	461	0	497	38	9	
7	0	0	0	0	515	463	0	494	38	9	
8	0	0	0	0	502	467	0	492	39	9	
9	0	0	0	0	491	469	0	501	38	9	
10	0	0	0	0	496	469	0	527	38	9	
11	0	0	0	0	496	467	0	531	38	9	
12	0	0	0	0	506	463	0	525	38	9	
13	0	0	0	0	512	461	0	517	38	9	
14	0	0	0	0	506	460	0	505	38	9	
15	0	0	0	0	513	461	0	500	38	9	
0	0	0	0	0	515	461	0	496	39	9	
1	0	0	0	0	517	461	0	491	38	9	
2	0	0	0	0	503	460	0	489	38	9	
3	0	0	0	0	507	461	0	498	38	9	
4	0	0	0	0	518	464	0	524	38	9	
5	0	0	0	0	515	470	0	530	38	9	
6	0	0	0	0	508	474	0	546	38	9	
7	0	0	0	0	513	476	0	548	38	9	
8	0	0	0	0	509	478	0	535	39	9	
9	0	0	0	0	499	480	0	526	38	9	
10	0	0	0	0	488	479	0	522	38	9	
11	0	0	0	0	507	476	0	513	38	9	
12	0	0	0	0	501	472	0	503	38	9	
13	0	0	0	0	506	467	0	496	38	9	
14	0	0	0	0	517	463	0	494	38	9	
15	0	0	0	0	514	462	0	492	38	9	
0	0	0	0	0	517	466	0	489	39	9	
1	0	0	0	0	505	473	0	488	38	9	
2	0	0	0	0	505	479	0	489	38	9	
3	0	0	0	0	507	482	0	487	38	9	
4	0	0	0	0	507	486	0	487	38	9	
5	0	0	0	0	517	488	0	488	38	9	
6	0	0	0	0	507	489	0	507	38	9	
7	0	0	0	0	508	490	0	529	38	9	
8	0	0	0	0	513	490	0	536	39	9	
9	0	0	0	0	507	489	0	555	38	9	
10	0	0	0	0	500	487	0	558	38	9	
11	0	0	0	0	500	484	0	547	38	9	
12	0	0	0	0	502	480	0	532	38	9	
13	0	0	0	0	496	477	0	519	38	9	
14	0	0	0	0	504	477	0	510	38	9	
15	0	0	0	0	513	477	0	503	38	9	
0	0	0	0	0	516	477	0	513	39	9	
1	0	0	0	0	512	478	0	529	38	9	
2	0	0	0	0	510	479	0	530	38	9	
3	0	0	0	0	502	481	0	521	38	9	
4	0	0	0	0	513	482	0	511	38	9	
5	0	0	0	0	511	483	0	505	38	9	
6	0	0	0	0	513	484	0	495	38	9	
7	0	0	0	0	507	488	0	492	38	9	
8	0	0	0	0	517	492	0	489	39	9	
9	0	0	0	0	511	495	0	484	38	9	
10	0	0	0	0	511	497	0	497	38	9	
11	0	0	0	0	483	496	0	518	38	9	
12	0	0	0	0	493	492	0	536	38	9	
13	0	0	0	0	499	486	0	519	38	9	
14	0	0	0	0	505	482	0	533	38	9	
15	0	0	0	0	512	483	0	539	38	9	
0	0	0	0	0	515	481	0	536	39	9	
1	0	0	0	0	507	480	0	531	38	9	
2	0	0	0	0	515	480	0	521	38	9	
3	0	0	0	0	503	486	0	513	38	9	
4	0	0	0	0	510	491	0	502	38	9	
5	0	0	0	0	507	493	0	497	38	9	
6	0	0	0	0	515	495	0	493	38	9	
7	0	0	0	0	510	495	0	490	38	9	
8	0	0	0	0	510	500	0	487	39	9	
9	0	0	0	0	517	502	0	486	38	9	
10	0	0	0	0	512	502	0	492	38	9	
11	0	0	0	0	508	501	0	482	38	9	
12	0	0	0	0	491	499	0	480	38	9	
13	0	0	0	0	502	497	0	479	38	9	
14	0	0	0	0	502	497	0	496	38	9	
15	0	0	0	0	501	499	0	516	38	9	
0	0	0	0	0	504	498	0	523	39	9	
1	0	0	0	0	512	496	0	543	38	9	
2	0	0	0	0	514	496	0	543	39	9	
3	0	0	0	0	512	496	0	532	38	9	
4	0	0	0	0	508	494	0	519	38	9	
5	0	0	0	0	509	492	0	509	38	9	
6	0	0	0	0	513	492	0	499	38	9	
7	0	0	0	0	512	496	0	493	38	9	
8	0	0	0	0	506	499	0	504	39	9	
9	0	0	0	0	513	500	0	515	39	9	
10	0	0	0	0	515	502	0	516	39	9	
11	0	0	0	0	508	502	0	508	38	9	
12	0	0	0	0	501	500	0	504	38	9	
13	0	0	0	0	491	498	0	503	38	9	
14	0	0	0	0	501	496	0	501	38	9	
15	0	0	0	0	501	495	0	497	38	9	
0	0	0	0	0	510	493	0	496	39	9	
1	0	0	0	0	504	494	0	489	38	9	
2	0	0	0	0	511	495	0	504	38	9	
3	0	0	0	0	511	496	0	525	38	9	
4	0	0	0	0	509	496	0	527	38	9	
5	0	0	0	0	501	497	0	519	38	9	
6	0	0	0	0	500	495	0	508	39	9	
7	0	0	0	0	515	492	0	508	38	9	
8	0	0	0	0	510	488	0	489	39	9	
9	0	0	0	0	511	488	0	488	38	9	
10	0	0	0	0	519	491	0	509	38	9	
11	0	0	0	0	511	499	0	516	38	9	
12	0	0	0	0	512	504	0	513	38	9	
13	0	0	0	0	499	504	0	506	39	9	
14	0	0	0	0	493	500	0	502	38	9	
15	0	0	0	0	498	502	0	495	38	9	
0	0	0	0	0	504	502	0	491	39	9	
1	0	0	0	0	508	500	0	507	38	9	
2	0	0	0	0	512	496	0	524	38	9	
3	0	0	0	0	519	494	0	529	38	9	
4	0	0	0	0	518	494	0	521	38	9	
5	0	0	0	0	509	496	0	510	38	9	
6	0	0	0	0	504	500	0	502	38	9	
7	0	0	0	0	511	503	0	504	39	9	
8	0	0	0	0	507	502	0	516	39	9	
9	0	0	0	0	515	500	0	514	38	9	
10	0	0	0	0	511	498	0	507	38	9	
11	0	0	0	0	513	499	0	512	38	9	
12	0	0	0	0	507	501	0	506	38	9	
13	0	0	0	0	506	503	0	501	39	9	
14	0	0	0	0	494	502	0	495	39	9	
15	0	0	0	0	497	501	0	490	39	9	
0	0	0	0	0	502	499	0	487	39	9	
1	0	0	0	0	507	496	0	485	38	9	
2	0	0	0	0	508	492	0	491	38	9	
3	0	0	0	0	513	489	0	513	38	9	
4	0	0	0	0	515	487	0	523	38	9	
5	0	0	0	0	519	484	0	518	38	9	
6	0	0	0	0	512	484	0	520	38	9	
7	0	0	0	0	499	487	0	537	39	9	
8	0	0	0	0	510	496	0	534	39	9	
9	0	0	0	0	509	502	0	525	38	9	
10	0	0	0	0	510	503	0	510	38	9	
11	0	0	0	0	514	501	0	500	38	9	
12	0	0	0	0	511	500	0	495	38	9	
13	0	0	0	0	504	499	0	489	38	9	
14	0	0	0	0	491	499	0	487	38	9	
15	0	0	0	0	495	498	0	483	39	9	
0	0	0	0	0	499	495	0	493	39	9	
1	0	0	0	0	502	492	0	512	38	9	
2	0	0	0	0	509	491	0	516	38	9	
3	0	0	0	0	507	490	0	513	38	9	
4	0	0	0	0	514	491	0	507	38	9	
5	0	0	0	0	515	493	0	502	38	9	
6	0	0	0	0	512	494	0	499	38	9	
7	0	0	0	0	504	496	0	497	38	9	
8	0	0	0	0	503	497	0	492	39	9	
9	0	0	0	0	513	499	0	489	38	9	
10	0	0	0	0	513	501	0	500	38	9	
11	0	0	0	0	510	501	0	522	38	9	
12	0	0	0	0	513	500	0	531	38	9	
13	0	0	0	0	511	498	0	547	38	9	
14	0	0	0	0	508	497	0	553	38	9	
15	0	0	0	0	497	497	0	548	39	9	
0	0	0	0	0	496	497	0	540	39	9	
1	0	0	0	0	501	495	0	527	38	9	
2	0	0	0	0	505	493	0	510	38	9	
3	0	0	0	0	504	492	0	501	38	9	
4	0	0	0	0	516	493	0	494	38	9	
5	0	0	0	0	515	495	0	492	38	9	
6	0	0	0	0	511	496	0	488	38	9	
7	0	0	0	0	510	497	0	484	38	9	
8	0	0	0	0	509	497	0	487	39	9	
9	0	0	0	0	510	495	0	483	39	9	
10	0	0	0	0	516	494	0	484	38	9	
11	0	0	0	0	507	493	0	484	38	9	
12	0	0	0	0	515	493	0	483	38	9	
13	0	0	0	0	513	494	0	502	38	9	
14	0	0	0	0	512	494	0	524	39	9	
15	0	0	0	0	501	496	0	530	39	9	
0	0	0	0	0	493	494	0	549	39	9	
1	0	0	0	0	496	488	0	553	38	9	
2	0	0	0	0	503	484	0	545	38	9	
3	0	0	0	0	505	489	0	530	38	9	
4	0	0	0	0	506	494	0	518	38	9	
5	0	0	0	0	511	495	0	508	38	9	
6	0	0	0	0	511	495	0	500	38	9	
7	0	0	0	0	513	493	0	496	39	9	
8	0	0	0	0	507	492	0	493	39	9	
9	0	0	0	0	506	492	0	498	38	9	
10	0	0	0	0	508	491	0	517	38	9	
11	0	0	0	0	517	491	0	528	38	9	
12	0	0	0	0	512	493	0	526	38	9	
13	0	0	0	0	512	497	0	520	38	9	
14	0	0	0	0	509	504	0	518	38	9	
15	0	0	0	0	512	507	0	520	38	9	
0	0	0	0	0	497	505	0	516	39	9	
1	0	0	0	0	491	499	0	527	38	9	
2	0	0	0	0	492	498	0	545	38	9	
3	0	0	0	0	505	498	0	544	38	9	
4	0	0	0	0	511	496	0	536	38	9	
5	0	0	0	0	513	496	0	520	38	9	
6	0	0	0	0	518	497	0	510	38	9	
7	0	0	0	0	518	500	0	501	39	9	
8	0	0	0	0	508	502	0	498	39	9	
9	0	0	0	0	498	502	0	515	38	9	
10	0	0	0	0	503	499	0	520	38	9	
11	0	0	0	0	512	495	0	522	38	9	
12	0	0	0	0	523	492	0	507	38	9	
13	0	0	0	0	514	492	0	501	38	9	
14	0	0	0	0	517	494	0	496	38	9	
15	0	0	0	0	506	494	0	493	38	9	
0	0	0	0	0	515	495	0	505	39	9	
1	0	0	0	0	497	496	0	521	38	9	
2	0	0	0	0	495	501	0	524	38	9	
3	0	0	0	0	496	505	0	514	38	9	
4	0	0	0	0	502	507	0	507	38	9	
5	0	0	0	0	503	507	0	497	38	9	
6	0	0	0	0	516	504	0	492	39	9	
7	0	0	0	0	507	500	0	488	39	9	
8	0	0	0	0	517	497	0	482	39	9	
9	0	0	0	0	505	497	0	478	38	9	
10	0	0	0	0	505	500	0	475	38	9	
11	0	0	0	0	512	500	0	476	38	9	
12	0	0	0	0	511	497	0	478	38	9	
13	0	0	0	0	518	495	0	476	38	9	
14	0	0	0	0	511	496	0	476	38	9	
15	0	0	0	0	512	499	0	472	39	9	
0	0	0	0	0	504	504	0	472	39	9	
1	0	0	0	0	497	506	0	464	38	9	
2	0	0	0	0	490	504	0	465	38	9	
3	0	0	0	0	496	502	0	466	38	9	
4	0	0	0	0	499	501	0	468	38	9	
5	0	0	0	0	511	501	0	471	38	9	
6	0	0	0	0	511	500	0	474	38	9	
7	0	0	0	0	522	499	0	472	39	9	
8	0	0	0	0	511	500	0	470	39	9	
9	0	0	0	0	510	503	0	483	38	9	
10	0	0	0	0	503	500	0	509	39	9	
11	0	0	0	0	505	501	0	512	38	9	
12	0	0	0	0	505	500	0	504	38	9	
13	0	0	0	0	515	506	0	507	38	9	
14	0	0	0	0	513	511	0	484	38	9	
15	0	0	0	0	518	511	0	477	39	9	
0	0	0	0	0	513	511	0	470	39	9	
1	0	0	0	0	504	511	0	463	38	9	
2	0	0	0	0	501	511	0	460	38	9	
3	0	0	0	0	501	508	0	460	38	9	
4	0	0	0	0	492	504	0	465	38	9	
5	0	0	0	0	499	502	0	471	39	9	
6	0	0	0	0	504	501	0	499	38	9	
7	0	0	0	0	517	500	0	511	38	9	
8	0	0	0	0	517	500	0	526	39	9	
9	0	0	0	0	511	503	0	543	39	9	
10	0	0	0	0	511	504	0	545	38	9	
11	0	0	0	0	506	506	0	558	38	9	
12	0	0	0	0	510	505	0	552	38	9	
13	0	0	0	0	512	503	0	552	38	9	
14	0	0	0	0	509	503	0	556	39	9	
15	0	0	0	0	512	504	0	548	39	9	
0	0	0	0	0	515	507	0	553	39	9	
1	0	0	0	0	514	511	0	549	39	9	
2	0	0	0	0	504	513	0	542	38	9	
3	0	0	0	0	484	514	0	532	38	9	
4	0	0	0	0	495	511	0	513	38	9	
5	0	0	0	0	494	510	0	500	39	9	
6	0	0	0	0	504	511	0	488	38	9	
7	0	0	0	0	506	512	0	481	38	9	
8	0	0	0	0	512	512	0	477	39	9	
9	0	0	0	0	511	508	0	476	38	9	
10	0	0	0	0	518	507	0	477	38	9	
11	0	0	0	0	502	508	0	493	38	9	
12	0	0	0	0	510	509	0	508	38	9	
13	0	0	0	0	510	509	0	510	38	9	
14	0	0	0	0	517	509	0	505	38	9	
15	0	0	0	0	513	510	0	523	38	9	
0	0	0	0	0	515	510	0	525	39	9	
1	0	0	0	0	512	509	0	516	38	9	
2	0	0	0	0	511	508	0	505	38	9	
3	0	0	0	0	509	508	0	496	38	9	
4	0	0	0	0	491	507	0	489	38	9	
5	0	0	0	0	501	505	0	483	38	9	
6	0	0	0	0	503	503	0	481	38	9	
7	0	0	0	0	502	500	0	482	38	9	
8	0	0	0	0	507	498	0	483	39	9	
9	0	0	0	0	511	499	0	505	38	9	
10	0	0	0	0	516	501	0	514	38	9	
11	0	0	0	0	517	505	0	511	38	9	
12	0	0	0	0	512	509	0	505	38	9	
13	0	0	0	0	507	510	0	505	38	9	
14	0	0	0	0	507	512	0	507	38	9	
15	0	0	0	0	516	510	0	503	39	9	
0	0	0	0	0	519	509	0	513	39	9	
1	0	0	0	0	507	510	0	530	38	9	
2	0	0	0	0	510	508	0	527	38	9	
3	0	0	0	0	507	509	0	518	38	9	
4	0	0	0	0	496	507	0	519	38	9	
5	0	0	0	0	488	508	0	495	38	9	
6	0	0	0	0	495	514	0	487	38	9	
7	0	0	0	0	504	516	0	484	38	9	
8	0	0	0	0	514	513	0	481	39	9	
9	0	0	0	0	508	509	0	476	38	9	
10	0	0	0	0	513	509	0	491	38	9	
11	0	0	0	0	513	509	0	513	38	9	
12	0	0	0	0	512	509	0	518	38	9	
13	0	0	0	0	505	510	0	514	39	9	
14	0	0	0	0	503	510	0	527	38	9	
15	0	0	0	0	512	510	0	532	38	9	
0	0	0	0	0	519	511	0	521	39	9	
1	0	0	0	0	514	513	0	509	38	9	
2	0	0	0	0	513	514	0	499	39	9	
3	0	0	0	0	513	517	0	493	38	9	
4	0	0	0	0	506	517	0	489	38	9	
5	0	0	0	0	493	515	0	486	38	9	
6	0	0	0	0	488	511	0	484	38	9	
7	0	0	0	0	497	507	0	482	38	9	
8	0	0	0	0	504	506	0	480	39	9	
9	0	0	0	0	508	505	0	479	38	9	
10	0	0	0	0	503	502	0	478	38	9	
11	0	0	0	0	513	501	0	480	38	9	
12	0	0	0	0	509	502	0	479	38	9	
13	0	0	0	0	512	505	0	499	38	9	
14	0	0	0	0	505	509	0	524	38	9	
15	0	0	0	0	505	512	0	526	38	9	
0	0	0	0	0	518	514	0	542	39	9	
1	0	0	0	0	514	512	0	540	38	9	
2	0	0	0	0	519	513	0	539	38	9	
3	0	0	0	0	508	513	0	526	38	9	
4	0	0	0	0	509	512	0	514	38	9	
5	0	0	0	0	500	512	0	517	38	9	
6	0	0	0	0	493	513	0	495	38	9	
7	0	0	0	0	501	515	0	491	38	9	
8	0	0	0	0	498	517	0	488	39	9	
9	0	0	0	0	505	519	0	487	38	9	
10	0	0	0	0	512	516	0	489	38	9	
11	0	0	0	0	511	515	0	514	38	9	
12	0	0	0	0	511	513	0	524	38	9	
13	0	0	0	0	510	512	0	519	38	9	
14	0	0	0	0	514	510	0	511	38	9	
15	0	0	0	0	508	511	0	504	38	9	
0	0	0	0	0	507	513	0	499	39	9	
1	0	0	0	0	514	517	0	511	38	9	
2	0	0	0	0	515	519	0	524	38	9	
3	0	0	0	0	508	520	0	522	38	9	
4	0	0	0	0	516	522	0	514	38	9	
5	0	0	0	0	507	521	0	505	38	9	
6	0	0	0	0	499	519	0	497	38	9	
7	0	0	0	0	493	514	0	494	38	9	
8	0	0	0	0	496	509	0	497	39	9	
9	0	0	0	0	507	504	0	516	38	9	
10	0	0	0	0	512	499	0	520	38	9	
11	0	0	0	0	515	501	0	517	38	9	
12	0	0	0	0	517	503	0	508	38	9	
13	0	0	0	0	514	507	0	510	39	9	
14	0	0	0	0	508	515	0	512	38	9	
15	0	0	0	0	502	516	0	509	39	9	
0	0	0	0	0	507	515	0	526	39	9	
1	0	0	0	0	513	517	0	538	38	9	
2	0	0	0	0	514	519	0	534	38	9	
3	0	0	0	0	509	520	0	524	38	9	
4	0	0	0	0	514	520	0	513	38	9	
5	0	0	0	0	514	519	0	503	38	9	
6	0	0	0	0	509	519	0	499	38	9	
7	0	0	0	0	494	517	0	491	39	9	
8	0	0	0	0	489	513	0	488	39	9	
9	0	0	0	0	499	510	0	488	38	9	
10	0	0	0	0	508	508	0	509	38	9	
11	0	0	0	0	507	507	0	526	38	9	
12	0	0	0	0	510	507	0	527	38	9	
13	0	0	0	0	508	508	0	523	38	9	
14	0	0	0	0	519	511	0	516	38	9	
15	0	0	0	0	511	513	0	507	38	9	
0	0	0	0	0	507	516	0	515	39	9	
1	0	0	0	0	498	519	0	528	38	9	
2	0	0	0	0	512	521	0	528	38	9	
3	0	0	0	0	515	521	0	519	38	9	
4	0	0	0	0	503	523	0	511	38	9	
5	0	0	0	0	518	525	0	504	38	9	
6	0	0	0	0	508	527	0	499	38	9	
7	0	0	0	0	494	527	0	493	39	9	
8	0	0	0	0	491	526	0	489	39	9	
9	0	0	0	0	496	523	0	484	38	9	
10	0	0	0	0	508	522	0	498	38	9	
11	0	0	0	0	505	521	0	520	38	9	
12	0	0	0	0	507	518	0	525	38	9	
13	0	0	0	0	513	516	0	521	38	9	
14	0	0	0	0	515	515	0	535	38	9	
15	0	0	0	0	516	515	0	541	38	9	
0	0	0	0	0	510	515	0	536	39	9	
1	0	0	0	0	507	515	0	523	39	9	
2	0	0	0	0	511	514	0	510	38	9	
3	0	0	0	0	517	513	0	506	38	9	
4	0	0	0	0	517	511	0	493	38	9	
5	0	0	0	0	510	510	0	489	38	9	
6	0	0	0	0	505	508	0	487	38	9	
7	0	0	0	0	512	507	0	486	39	9	
8	0	0	0	0	504	507	0	484	39	9	
9	0	0	0	0	493	509	0	483	38	9	
10	0	0	0	0	494	511	0	484	38	9	
11	0	0	0	0	504	513	0	482	38	9	
12	0	0	0	0	503	519	0	483	38	9	
13	0	0	0	0	505	525	0	511	38	9	
14	0	0	0	0	518	526	0	524	38	9	
15	0	0	0	0	508	527	0	532	38	9	
0	0	0	0	0	505	527	0	547	39	9	
1	0	0	0	0	508	529	0	540	38	9	
2	0	0	0	0	508	531	0	528	38	9	
3	0	0	0	0	515	532	0	516	38	9	
4	0	0	0	0	511	532	0	506	38	9	
5	0	0	0	0	508	532	0	502	38	9	
6	0	0	0	0	516	534	0	498	39	9	
7	0	0	0	0	511	534	0	497	38	9	
8	0	0	0	0	510	532	0	492	39	9	
9	0	0	0	0	491	528	0	502	38	9	
10	0	0	0	0	497	521	0	526	39	9	
11	0	0	0	0	504	516	0	530	38	9	
12	0	0	0	0	504	515	0	526	38	9	
13	0	0	0	0	506	516	0	527	38	9	
14	0	0	0	0	512	519	0	524	39	9	
15	0	0	0	0	520	521	0	519	39	9	
0	0	0	0	0	511	522	0	539	39	9	
1	0	0	0	0	499	522	0	547	38	9	
2	0	0	0	0	504	520	0	538	38	9	
3	0	0	0	0	511	522	0	526	38	9	
4	0	0	0	0	514	524	0	514	38	9	
5	0	0	0	0	508	527	0	503	38	9	
6	0	0	0	0	508	530	0	495	38	9	
7	0	0	0	0	518	530	0	491	38	9	
8	0	0	0	0	508	529	0	498	39	9	
9	0	0	0	0	502	528	0	519	38	9	
10	0	0	0	0	491	524	0	522	38	9	
11	0	0	0	0	500	520	0	518	38	9	
12	0	0	0	0	501	523	0	512	38	9	
13	0	0	0	0	508	524	0	504	38	9	
14	0	0	0	0	508	522	0	499	38	9	
15	0	0	0	0	514	519	0	494	38	9	
0	0	0	0	0	513	518	0	490	39	9	
1	0	0	0	0	511	518	0	486	38	9	
2	0	0	0	0	514	517	0	496	38	9	
3	0	0	0	0	504	517	0	523	38	9	
4	0	0	0	0	515	516	0	529	38	9	
5	0	0	0	0	521	517	0	545	39	9	
6	0	0	0	0	508	518	0	557	38	9	
7	0	0	0	0	506	516	0	540	38	9	
8	0	0	0	0	512	517	0	529	39	9	
9	0	0	0	0	504	520	0	526	38	9	
10	0	0	0	0	497	524	0	518	38	9	
11	0	0	0	0	494	525	0	507	38	9	
12	0	0	0	0	502	526	0	500	38	9	
13	0	0	0	0	503	522	0	499	38	9	
14	0	0	0	0	512	519	0	492	38	9	
15	0	0	0	0	506	516	0	489	38	9	
0	0	0	0	0	521	513	0	488	39	9	
1	0	0	0	0	508	508	0	490	38	9	
2	0	0	0	0	506	508	0	487	38	9	
3	0	0	0	0	515	511	0	486	38	9	
4	0	0	0	0	505	513	0	492	38	9	
5	0	0	0	0	513	517	0	499	38	9	
6	0	0	0	0	509	522	0	523	38	9	
7	0	0	0	0	512	525	0	530	38	9	
8	0	0	0	0	512	526	0	550	39	9	
9	0	0	0	0	511	528	0	548	38	9	
10	0	0	0	0	506	532	0	536	38	9	
11	0	0	0	0	501	535	0	524	39	9	
12	0	0	0	0	493	535	0	513	38	9	
13	0	0	0	0	501	535	0	504	38	9	
14	0	0	0	0	511	533	0	499	38	9	
15	0	0	0	0	505	531	0	495	38	9	
0	0	0	0	0	508	530	0	491	39	9	
1	0	0	0	0	512	527	0	492	38	9	
2	0	0	0	0	515	526	0	515	38	9	
3	0	0	0	0	512	527	0	525	38	9	
4	0	0	0	0	508	528	0	520	38	9	
5	0	0	0	0	503	530	0	513	38	9	
6	0	0	0	0	512	530	0	506	38	9	
7	0	0	0	0	516	528	0	502	38	9	
8	0	0	0	0	509	527	0	513	39	9	
9	0	0	0	0	512	524	0	524	38	9	
10	0	0	0	0	516	521	0	524	38	9	
11	0	0	0	0	507	522	0	531	38	9	
12	0	0	0	0	487	523	0	519	38	9	
13	0	0	0	0	494	524	0	512	38	9	
14	0	0	0	0	514	524	0	502	38	9	
15	0	0	0	0	502	523	0	493	38	9	
0	0	0	0	0	498	522	0	488	39	9	
1	0	0	0	0	513	521	0	491	39	9	
2	0	0	0	0	518	518	0	483	38	9	
3	0	0	0	0	514	517	0	497	38	9	
4	0	0	0	0	507	518	0	517	38	9	
5	0	0	0	0	505	519	0	519	38	9	
6	0	0	0	0	504	524	0	514	39	9	
7	0	0	0	0	516	526	0	526	38	9	
8	0	0	0	0	511	530	0	532	39	9	
9	0	0	0	0	512	533	0	524	39	9	
10	0	0	0	0	510	535	0	509	39	9	
11	0	0	0	0	505	535	0	500	38	9	
12	0	0	0	0	505	532	0	494	38	9	
13	0	0	0	0	489	531	0	487	38	9	
14	0	0	0	0	499	531	0	484	38	9	
15	0	0	0	0	500	532	0	484	38	9	
0	0	0	0	0	508	534	0	480	39	9	
1	0	0	0	0	509	535	0	499	38	9	
2	0	0	0	0	519	535	0	515	38	9	
3	0	0	0	0	513	535	0	518	38	9	
4	0	0	0	0	515	536	0	511	38	9	
5	0	0	0	0	507	540	0	502	38	9	
6	0	0	0	0	508	543	0	494	38	9	
7	0	0	0	0	508	548	0	489	38	9	
8	0	0	0	0	508	552	0	492	39	9	
9	0	0	0	0	504	551	0	508	38	9	
10	0	0	0	0	508	554	0	509	38	9	
11	0	0	0	0	511	559	0	501	38	9	
12	0	0	0	0	512	560	0	493	38	9	
13	0	0	0	0	494	557	0	494	39	9	
14	0	0	0	0	495	555	0	496	38	9	
15	0	0	0	0	496	555	0	508	39	9	
0	0	0	0	0	505	551	0	507	39	9	
1	0	0	0	0	505	553	0	518	38	9	
2	0	0	0	0	516	557	0	516	38	9	
3	0	0	0	0	514	560	0	506	38	9	
4	0	0	0	0	512	560	0	496	38	9	
5	0	0	0	0	508	559	0	487	38	9	
6	0	0	0	0	501	558	0	480	38	9	
7	0	0	0	0	512	561	0	474	38	9	
8	0	0	0	0	515	561	0	470	39	9	
9	0	0	0	0	514	560	0	470	38	9	
10	0	0	0	0	512	559	0	488	38	9	
11	0	0	0	0	517	560	0	506	38	9	
12	0	0	0	0	512	560	0	507	38	9	
13	0	0	0	0	503	555	0	502	38	9	
14	0	0	0	0	489	548	0	492	38	9	
15	0	0	0	0	493	542	0	483	38	9	
0	0	0	0	0	502	536	0	473	39	9	
1	0	0	0	0	509	531	0	476	38	9	
2	0	0	0	0	503	527	0	499	38	9	
3	0	0	0	0	511	526	0	501	38	9	
4	0	0	0	0	515	526	0	496	38	9	
5	0	0	0	0	513	527	0	489	38	9	
6	0	0	0	0	511	529	0	482	38	9	
7	0	0	0	0	504	528	0	482	38	9	
8	0	0	0	0	510	527	0	498	39	9	
9	0	0	0	0	511	529	0	505	38	9	
10	0	0	0	0	517	526	0	500	38	9	
11	0	0	0	0	510	524	0	500	38	9	
12	0	0	0	0	505	521	0	498	38	9	
13	0	0	0	0	510	519	0	492	38	9	
14	0	0	0	0	500	517	0	483	38	9	
15	0	0	0	0	499	514	0	479	39	9	
0	0	0	0	0	500	514	0	477	39	9	
1	0	0	0	0	502	513	0	476	38	9	
2	0	0	0	0	504	509	0	476	38	9	
3	0	0	0	0	510	508	0	494	38	9	
4	0	0	0	0	515	509	0	508	38	9	
5	0	0	0	0	512	511	0	510	39	9	
6	0	0	0	0	508	511	0	502	38	9	
7	0	0	0	0	508	510	0	495	38	9	
8	0	0	0	0	505	506	0	488	39	9	
9	0	0	0	0	516	503	0	500	38	9	
10	0	0	0	0	507	503	0	525	39	9	
11	0	0	0	0	510	503	0	523	38	9	
12	0	0	0	0	506	505	0	515	38	9	
13	0	0	0	0	511	507	0	506	38	9	
14	0	0	0	0	505	510	0	498	38	9	
15	0	0	0	0	496	510	0	502	38	9	
0	0	0	0	0	497	508	0	515	39	9	
1	0	0	0	0	508	505	0	516	38	9	
2	0	0	0	0	512	503	0	512	38	9	
3	0	0	0	0	509	502	0	503	38	9	
4	0	0	0	0	508	504	0	496	38	9	
5	0	0	0	0	512	506	0	490	38	9	
6	0	0	0	0	512	512	0	487	38	9	
7	0	0	0	0	507	515	0	497	38	9	
8	0	0	0	0	510	514	0	483	39	9	
9	0	0	0	0	509	509	0	493	38	9	
10	0	0	0	0	512	504	0	519	38	9	
11	0	0	0	0	513	499	0	523	38	9	
12	0	0	0	0	505	494	0	518	38	9	
13	0	0	0	0	509	493	0	517	38	9	
14	0	0	0	0	511	496	0	514	38	9	
15	0	0	0	0	513	499	0	512	38	9	
0	0	0	0	0	491	501	0	529	39	9	
1	0	0	0	0	495	502	0	538	38	9	
2	0	0	0	0	505	500	0	531	38	9	
3	0	0	0	0	506	497	0	519	38	9	
4	0	0	0	0	504	495	0	511	38	9	
5	0	0	0	0	512	496	0	503	38	9	
6	0	0	0	0	519	497	0	496	38	9	
7	0	0	0	0	510	501	0	492	39	9	
8	0	0	0	0	507	503	0	490	39	9	
9	0	0	0	0	512	503	0	495	38	9	
10	0	0	0	0	505	503	0	519	38	9	
11	0	0	0	0	515	502	0	527	38	9	
12	0	0	0	0	515	504	0	524	38	9	
13	0	0	0	0	517	509	0	517	38	9	
14	0	0	0	0	508	510	0	510	38	9	
15	0	0	0	0	513	510	0	507	38	9	
0	0	0	0	0	500	515	0	522	39	9	
1	0	0	0	0	486	515	0	531	39	9	
2	0	0	0	0	496	512	0	529	39	9	
3	0	0	0	0	503	507	0	521	38	9	
4	0	0	0	0	508	505	0	512	38	9	
5	0	0	0	0	504	504	0	507	38	9	
6	0	0	0	0	515	505	0	500	38	9	
7	0	0	0	0	507	507	0	497	38	9	
8	0	0	0	0	513	509	0	493	39	9	
9	0	0	0	0	512	509	0	491	38	9	
10	0	0	0	0	511	505	0	511	38	9	
11	0	0	0	0	511	501	0	524	38	9	
12	0	0	0	0	514	501	0	524	38	9	
13	0	0	0	0	512	507	0	524	38	9	
14	0	0	0	0	508	510	0	523	38	9	
15	0	0	0	0	513	513	0	518	38	9	
0	0	0	0	0	503	516	0	525	39	9	
1	0	0	0	0	490	518	0	540	38	9	
2	0	0	0	0	489	518	0	551	38	9	
3	0	0	0	0	499	516	0	527	38	9	
4	0	0	0	0	512	511	0	516	38	9	
5	0	0	0	0	512	507	0	507	39	9	
6	0	0	0	0	515	504	0	497	39	9	
7	0	0	0	0	511	504	0	494	39	9	
8	0	0	0	0	509	504	0	493	39	9	
9	0	0	0	0	509	502	0	485	39	9	
10	0	0	0	0	504	503	0	499	38	9	
11	0	0	0	0	503	503	0	521	39	9	
12	0	0	0	0	511	502	0	527	38	9	
13	0	0	0	0	518	499	0	524	39	9	
14	0	0	0	0	506	496	0	536	38	9	
15	0	0	0	0	508	493	0	542	38	9	
0	0	0	0	0	513	492	0	535	39	9	
1	0	0	0	0	509	488	0	522	38	9	
2	0	0	0	0	499	483	0	514	38	9	
3	0	0	0	0	501	478	0	507	38	9	
4	0	0	0	0	503	472	0	502	38	9	
5	0	0	0	0	507	465	0	498	38	9	
6	0	0	0	0	502	463	0	496	38	9	
7	0	0	0	0	507	465	0	492	39	9	
8	0	0	0	0	512	470	0	491	39	9	
9	0	0	0	0	516	473	0	503	38	9	
10	0	0	0	0	503	478	0	526	38	9	
11	0	0	0	0	504	483	0	530	38	9	
12	0	0	0	0	508	488	0	526	38	9	
13	0	0	0	0	512	496	0	531	38	9	
14	0	0	0	0	512	508	0	520	38	9	
15	0	0	0	0	513	521	0	521	38	9	
0	0	0	0	0	510	537	0	540	39	9	
1	0	0	0	0	510	551	0	535	38	9	
2	0	0	0	0	493	566	0	526	38	9	
3	0	0	0	0	490	582	0	516	38	9	
4	0	0	0	0	496	598	0	505	38	9	
5	0	0	0	0	512	616	0	499	38	9	
6	0	0	0	0	509	633	0	493	38	9	
7	0	0	0	0	509	649	0	490	38	9	
8	0	0	0	0	521	669	0	487	39	9	
9	0	0	0	0	512	691	0	494	38	9	
10	0	0	0	0	508	717	0	519	38	9	
11	0	0	0	0	512	745	0	525	38	9	
12	0	0	0	0	509	774	0	518	38	9	
13	0	0	0	0	507	800	0	510	38	9	
14	0	0	0	0	514	823	0	501	38	9	
15	0	0	0	0	515	843	0	499	38	9	
0	0	0	0	0	511	862	0	516	39	9	
1	0	0	0	0	510	879	0	525	38	9	
2	0	0	0	0	512	895	0	517	38	9	
3	0	0	0	0	503	907	0	508	39	9	
4	0	0	0	0	497	914	0	499	38	9	
5	0	0	0	0	504	919	0	492	38	9	
6	0	0	0	0	503	924	0	487	38	9	
7	0	0	0	0	503	929	0	484	38	9	
8	0	0	0	0	507	932	0	483	39	9	
9	0	0	0	0	516	927	0	490	38	9	
10	0	0	0	0	511	918	0	507	38	9	
11	0	0	0	0	513	907	0	517	38	9	
12	0	0	0	0	506	893	0	516	38	9	
13	0	0	0	0	509	878	0	516	38	9	
14	0	0	0	0	515	865	0	515	38	9	
15	0	0	0	0	506	850	0	508	38	9	
0	0	0	0	0	515	834	0	523	39	9	
1	0	0	0	0	509	814	0	537	38	9	
2	0	0	0	0	504	788	0	533	38	9	
3	0	0	0	0	498	757	0	523	38	9	
4	0	0	0	0	490	719	0	510	38	9	
5	0	0	0	0	496	674	0	500	38	9	
6	0	0	0	0	502	629	0	493	38	9	
7	0	0	0	0	512	590	0	493	39	9	
8	0	0	0	0	511	556	0	486	39	9	
9	0	0	0	0	515	527	0	483	38	9	
10	0	0	0	0	515	500	0	502	38	9	
11	0	0	0	0	510	478	0	514	38	9	
12	0	0	0	0	512	460	0	515	38	9	
13	0	0	0	0	514	444	0	511	38	9	
14	0	0	0	0	510	427	0	501	38	9	
15	0	0	0	0	521	413	0	494	38	9	
0	0	0	0	0	512	406	0	503	39	9	
1	0	0	0	0	512	405	0	515	38	9	
2	0	0	0	0	508	406	0	514	38	9	
3	0	0	0	0	507	408	0	507	38	9	
4	0	0	0	0	502	404	0	499	38	9	
5	0	0	0	0	491	397	0	492	38	9	
6	0	0	0	0	493	391	0	488	38	9	
7	0	0	0	0	500	389	0	485	38	9	
8	0	0	0	0	509	391	0	482	39	9	
9	0	0	0	0	508	393	0	477	38	9	
10	0	0	0	0	519	395	0	492	38	9	
11	0	0	0	0	511	399	0	514	38	9	
12	0	0	0	0	513	400	0	519	38	9	
13	0	0	0	0	506	401	0	515	39	9	
14	0	0	0	0	505	401	0	531	38	9	
15	0	0	0	0	518	402	0	535	38	9	
0	0	0	0	0	512	404	0	529	39	9	
1	0	0	0	0	509	407	0	519	38	9	
2	0	0	0	0	513	409	0	505	38	9	
3	0	0	0	0	517	412	0	496	38	9	
4	0	0	0	0	513	415	0	489	38	9	
5	0	0	0	0	492	414	0	486	38	9	
6	0	0	0	0	488	411	0	487	38	9	
7	0	0	0	0	495	409	0	481	38	9	
8	0	0	0	0	506	407	0	480	39	9	
9	0	0	0	0	507	407	0	482	38	9	
10	0	0	0	0	511	409	0	481	38	9	
11	0	0	0	0	512	411	0	483	38	9	
12	0	0	0	0	515	413	0	486	38	9	
13	0	0	0	0	511	414	0	507	38	9	
14	0	0	0	0	505	414	0	526	38	9	
15	0	0	0	0	508	416	0	536	38	9	
0	0	0	0	0	519	421	0	551	39	9	
1	0	0	0	0	516	424	0	546	38	9	
2	0	0	0	0	515	427	0	531	39	9	
3	0	0	0	0	511	428	0	517	38	9	
4	0	0	0	0	513	426	0	508	38	9	
5	0	0	0	0	507	424	0	497	38	9	
6	0	0	0	0	492	422	0	492	38	9	
7	0	0	0	0	500	419	0	487	38	9	
8	0	0	0	0	495	417	0	483	39	9	
9	0	0	0	0	503	418	0	493	38	9	
10	0	0	0	0	509	419	0	515	38	9	
11	0	0	0	0	508	420	0	521	39	9	
12	0	0	0	0	520	422	0	516	38	9	
13	0	0	0	0	510	422	0	517	38	9	
14	0	0	0	0	511	422	0	513	38	9	
15	0	0	0	0	502	422	0	505	39	9	
0	0	0	0	0	509	422	0	499	39	9	
1	0	0	0	0	518	423	0	531	39	9	
2	0	0	0	0	508	426	0	528	38	9	
3	0	0	0	0	512	433	0	526	38	9	
4	0	0	0	0	513	441	0	521	38	9	
5	0	0	0	0	508	443	0	510	38	9	
6	0	0	0	0	502	438	0	501	38	9	
7	0	0	0	0	495	436	0	495	38	9	
8	0	0	0	0	489	431	0	499	39	9	
9	0	0	0	0	504	427	0	516	38	9	
10	0	0	0	0	506	425	0	520	38	9	
11	0	0	0	0	507	423	0	515	38	9	
12	0	0	0	0	513	423	0	511	38	9	
13	0	0	0	0	510	421	0	502	38	9	
14	0	0	0	0	513	423	0	498	38	9	
15	0	0	0	0	510	429	0	497	38	9	
0	0	0	0	0	506	434	0	491	39	9	
1	0	0	0	0	511	440	0	487	38	9	
2	0	0	0	0	517	446	0	496	38	9	
3	0	0	0	0	508	448	0	521	38	9	
4	0	0	0	0	516	448	0	530	38	9	
5	0	0	0	0	516	449	0	546	38	9	
6	0	0	0	0	499	451	0	554	38	9	
7	0	0	0	0	491	448	0	560	39	9	
8	0	0	0	0	501	444	0	531	39	9	
9	0	0	0	0	498	440	0	526	38	9	
10	0	0	0	0	506	435	0	517	38	9	
11	0	0	0	0	506	431	0	505	38	9	
12	0	0	0	0	504	431	0	498	38	9	
13	0	0	0	0	512	434	0	495	38	9	
14	0	0	0	0	516	440	0	491	38	9	
15	0	0	0	0	512	443	0	489	38	9	
0	0	0	0	0	514	444	0	488	39	9	
1	0	0	0	0	510	445	0	488	38	9	
2	0	0	0	0	513	444	0	487	38	9	
3	0	0	0	0	512	444	0	484	38	9	
4	0	0	0	0	513	446	0	485	38	9	
5	0	0	0	0	507	451	0	502	38	9	
6	0	0	0	0	508	461	0	525	38	9	
7	0	0	0	0	505	471	0	531	38	9	
8	0	0	0	0	493	472	0	549	39	9	
9	0	0	0	0	491	471	0	547	38	9	
10	0	0	0	0	494	469	0	537	39	9	
11	0	0	0	0	500	468	0	542	38	9	
12	0	0	0	0	507	470	0	515	38	9	
13	0	0	0	0	516	470	0	508	38	9	
14	0	0	0	0	513	467	0	506	38	9	
15	0	0	0	0	511	465	0	501	38	9	
0	0	0	0	0	513	465	0	497	39	9	
1	0	0	0	0	507	465	0	498	38	9	
2	0	0	0	0	518	465	0	519	38	9	
3	0	0	0	0	517	466	0	530	38	9	
4	0	0	0	0	508	467	0	529	38	9	
5	0	0	0	0	520	469	0	521	38	9	
6	0	0	0	0	516	470	0	515	38	9	
7	0	0	0	0	514	471	0	513	39	9	
8	0	0	0	0	499	471	0	524	39	9	
9	0	0	0	0	489	472	0	537	38	9	
10	0	0	0	0	498	472	0	536	39	9	
11	0	0	0	0	502	468	0	528	38	9	
12	0	0	0	0	508	467	0	523	38	9	
13	0	0	0	0	509	465	0	524	38	9	
14	0	0	0	0	511	465	0	518	38	9	
15	0	0	0	0	515	466	0	516	39	9	
0	0	0	0	0	508	469	0	511	39	9	
1	0	0	0	0	504	472	0	509	38	9	
2	0	0	0	0	508	473	0	527	38	9	
3	0	0	0	0	510	475	0	540	38	9	
4	0	0	0	0	510	477	0	539	38	9	
5	0	0	0	0	510	479	0	532	38	9	
6	0	0	0	0	515	480	0	524	38	9	
7	0	0	0	0	519	482	0	517	38	9	
8	0	0	0	0	508	484	0	510	39	9	
9	0	0	0	0	496	481	0	516	38	9	
10	0	0	0	0	495	477	0	539	38	9	
11	0	0	0	0	494	471	0	542	38	9	
12	0	0	0	0	506	469	0	536	38	9	
13	0	0	0	0	509	471	0	539	38	9	
14	0	0	0	0	511	471	0	518	38	9	
15	0	0	0	0	504	472	0	516	38	9	
0	0	0	0	0	511	472	0	536	39	9	
1	0	0	0	0	515	473	0	543	38	9	
2	0	0	0	0	509	477	0	540	38	9	
3	0	0	0	0	504	479	0	534	38	9	
4	0	0	0	0	519	482	0	525	38	9	
5	0	0	0	0	513	483	0	519	38	9	
6	0	0	0	0	514	484	0	512	38	9	
7	0	0	0	0	519	488	0	508	38	9	
8	0	0	0	0	513	491	0	505	39	9	
9	0	0	0	0	504	493	0	507	38	9	
10	0	0	0	0	493	491	0	530	38	9	
11	0	0	0	0	501	488	0	540	38	9	
12	0	0	0	0	505	485	0	535	38	9	
13	0	0	0	0	508	483	0	527	39	9	
14	0	0	0	0	499	481	0	527	38	9	
15	0	0	0	0	512	480	0	526	39	9	
0	0	0	0	0	511	480	0	520	39	9	
1	0	0	0	0	511	482	0	530	39	9	
2	0	0	0	0	504	484	0	548	39	9	
3	0	0	0	0	508	486	0	549	38	9	
4	0	0	0	0	510	487	0	539	38	9	
5	0	0	0	0	509	490	0	526	38	9	
6	0	0	0	0	513	491	0	516	38	9	
7	0	0	0	0	513	492	0	520	38	9	
8	0	0	0	0	515	492	0	535	39	9	
9	0	0	0	0	509	496	0	535	38	9	
10	0	0	0	0	500	500	0	528	38	9	
11	0	0	0	0	495	503	0	522	38	9	
12	0	0	0	0	503	503	0	518	38	9	
13	0	0	0	0	503	501	0	513	38	9	
14	0	0	0	0	504	499	0	510	38	9	
15	0	0	0	0	508	499	0	512	39	9	
0	0	0	0	0	515	498	0	502	39	9	
1	0	0	0	0	509	499	0	500	39	9	
2	0	0	0	0	510	500	0	503	38	9	
3	0	0	0	0	507	504	0	500	38	9	
4	0	0	0	0	509	506	0	500	38	9	
5	0	0	0	0	514	506	0	501	38	9	
6	0	0	0	0	513	506	0	499	39	9	
7	0	0	0	0	513	506	0	499	38	9	
8	0	0	0	0	512	506	0	495	39	9	
9	0	0	0	0	511	507	0	493	38	9	
10	0	0	0	0	512	509	0	493	38	9	
11	0	0	0	0	493	509	0	494	38	9	
12	0	0	0	0	491	506	0	498	38	9	
13	0	0	0	0	496	504	0	501	38	9	
14	0	0	0	0	508	502	0	500	38	9	
15	0	0	0	0	497	501	0	497	38	9	
0	0	0	0	0	510	500	0	491	39	9	
1	0	0	0	0	516	502	0	488	38	9	
2	0	0	0	0	515	504	0	488	39	9	
3	0	0	0	0	513	507	0	488	38	9	
4	0	0	0	0	511	511	0	489	38	9	
5	0	0	0	0	499	513	0	491	38	9	
6	0	0	0	0	507	512	0	493	38	9	
7	0	0	0	0	515	513	0	495	39	9	
8	0	0	0	0	517	515	0	492	39	9	
9	0	0	0	0	519	516	0	490	38	9	
10	0	0	0	0	511	516	0	492	38	9	
11	0	0	0	0	507	516	0	508	38	9	
12	0	0	0	0	494	515	0	494	38	9	
13	0	0	0	0	494	513	0	496	38	9	
14	0	0	0	0	504	513	0	515	38	9	
15	0	0	0	0	507	512	0	530	39	9	
0	0	0	0	0	507	513	0	535	39	9	
1	0	0	0	0	512	514	0	559	38	9	
2	0	0	0	0	515	518	0	563	38	9	
3	0	0	0	0	508	523	0	570	38	9	
4	0	0	0	0	506	525	0	579	38	9	
5	0	0	0	0	504	525	0	573	38	9	
6	0	0	0	0	509	525	0	582	38	9	
7	0	0	0	0	513	527	0	579	38	9	
8	0	0	0	0	518	530	0	579	39	9	
9	0	0	0	0	511	534	0	581	38	9	
10	0	0	0	0	512	538	0	569	39	9	
11	0	0	0	0	515	541	0	575	38	9	
12	0	0	0	0	505	542	0	568	38	9	
13	0	0	0	0	486	540	0	551	38	9	
14	0	0	0	0	493	540	0	544	39	9	
15	0	0	0	0	502	539	0	556	39	9	
0	0	0	0	0	503	536	0	553	39	9	
1	0	0	0	0	508	532	0	539	38	9	
2	0	0	0	0	515	532	0	526	38	9	
3	0	0	0	0	508	535	0	514	38	9	
4	0	0	0	0	508	536	0	505	38	9	
5	0	0	0	0	510	537	0	502	38	9	
6	0	0	0	0	510	537	0	495	38	9	
7	0	0	0	0	515	537	0	492	38	9	
8	0	0	0	0	514	539	0	500	39	9	
9	0	0	0	0	513	540	0	518	38	9	
10	0	0	0	0	516	541	0	521	38	9	
11	0	0	0	0	510	545	0	516	38	9	
12	0	0	0	0	509	548	0	509	38	9	
13	0	0	0	0	495	551	0	502	38	9	
14	0	0	0	0	488	549	0	496	38	9	
15	0	0	0	0	500	543	0	491	38	9	
0	0	0	0	0	511	537	0	489	39	9	
1	0	0	0	0	503	531	0	483	38	9	
2	0	0	0	0	508	528	0	493	38	9	
3	0	0	0	0	513	527	0	520	38	9	
4	0	0	0	0	511	527	0	525	38	9	
5	0	0	0	0	515	527	0	520	38	9	
6	0	0	0	0	504	528	0	529	38	9	
7	0	0	0	0	504	531	0	539	39	9	
8	0	0	0	0	508	532	0	532	39	9	
9	0	0	0	0	516	535	0	523	38	9	
10	0	0	0	0	515	538	0	509	38	9	
11	0	0	0	0	513	541	0	508	38	9	
12	0	0	0	0	512	543	0	505	38	9	
13	0	0	0	0	505	544	0	500	38	9	
14	0	0	0	0	500	544	0	497	38	9	
15	0	0	0	0	500	543	0	492	38	9	
0	0	0	0	0	499	541	0	490	39	9	
1	0	0	0	0	503	537	0	487	39	9	
2	0	0	0	0	504	532	0	493	38	9	
3	0	0	0	0	513	527	0	514	38	9	
4	0	0	0	0	512	526	0	524	38	9	
5	0	0	0	0	510	530	0	522	38	9	
6	0	0	0	0	508	532	0	525	38	9	
7	0	0	0	0	513	530	0	541	38	9	
8	0	0	0	0	507	527	0	539	39	9	
9	0	0	0	0	516	524	0	528	38	9	
10	0	0	0	0	513	526	0	515	38	9	
11	0	0	0	0	516	526	0	502	38	9	
12	0	0	0	0	510	529	0	496	38	9	
13	0	0	0	0	511	535	0	493	38	9	
14	0	0	0	0	504	536	0	488	38	9	
15	0	0	0	0	500	535	0	487	38	9	
0	0	0	0	0	499	531	0	497	39	9	
1	0	0	0	0	497	527	0	516	38	9	
2	0	0	0	0	509	525	0	520	38	9	
3	0	0	0	0	505	521	0	513	38	9	
4	0	0	0	0	516	518	0	506	38	9	
5	0	0	0	0	519	517	0	499	38	9	
6	0	0	0	0	507	515	0	493	38	9	
7	0	0	0	0	501	514	0	488	38	9	
8	0	0	0	0	511	513	0	494	39	9	
9	0	0	0	0	512	513	0	482	38	9	
10	0	0	0	0	512	513	0	491	38	9	
11	0	0	0	0	507	515	0	518	38	9	
12	0	0	0	0	514	516	0	524	38	9	
13	0	0	0	0	510	518	0	542	38	9	
14	0	0	0	0	508	520	0	551	38	9	
15	0	0	0	0	496	516	0	546	39	9	
0	0	0	0	0	494	509	0	538	39	9	
1	0	0	0	0	500	503	0	524	39	9	
2	0	0	0	0	506	497	0	511	39	9	
3	0	0	0	0	505	494	0	502	38	9	
4	0	0	0	0	510	492	0	495	38	9	
5	0	0	0	0	515	492	0	494	38	9	
6	0	0	0	0	514	490	0	494	38	9	
7	0	0	0	0	509	488	0	489	39	9	
8	0	0	0	0	506	486	0	488	39	9	
9	0	0	0	0	504	483	0	488	38	9	
10	0	0	0	0	518	482	0	486	38	9	
11	0	0	0	0	511	482	0	485	38	9	
12	0	0	0	0	509	483	0	488	38	9	
13	0	0	0	0	509	482	0	502	38	9	
14	0	0	0	0	512	479	0	524	38	9	
15	0	0	0	0	507	478	0	529	39	9	
0	0	0	0	0	495	475	0	547	39	9	
1	0	0	0	0	494	473	0	553	39	9	
2	0	0	0	0	505	471	0	542	39	9	
3	0	0	0	0	508	469	0	530	38	9	
4	0	0	0	0	515	463	0	519	38	9	
5	0	0	0	0	511	460	0	511	38	9	
6	0	0	0	0	513	456	0	506	38	9	
7	0	0	0	0	514	454	0	502	38	9	
8	0	0	0	0	503	453	0	499	39	9	
9	0	0	0	0	507	453	0	500	38	9	
10	0	0	0	0	507	452	0	520	38	9	
11	0	0	0	0	516	454	0	531	38	9	
12	0	0	0	0	511	455	0	531	38	9	
13	0	0	0	0	509	457	0	532	38	9	
14	0	0	0	0	518	458	0	532	38	9	
15	0	0	0	0	510	459	0	530	39	9	
0	0	0	0	0	505	459	0	542	39	9	
1	0	0	0	0	489	456	0	557	38	9	
2	0	0	0	0	493	453	0	554	38	9	
3	0	0	0	0	499	449	0	541	38	9	
4	0	0	0	0	512	448	0	528	38	9	
5	0	0	0	0	504	447	0	516	38	9	
6	0	0	0	0	518	448	0	508	38	9	
7	0	0	0	0	513	448	0	503	38	9	
8	0	0	0	0	508	448	0	498	39	9	
9	0	0	0	0	503	450	0	494	38	9	
10	0	0	0	0	512	453	0	514	38	9	
11	0	0	0	0	518	455	0	529	38	9	
12	0	0	0	0	513	457	0	531	38	9	
13	0	0	0	0	511	460	0	528	38	9	
14	0	0	0	0	510	463	0	521	38	9	
15	0	0	0	0	510	464	0	515	39	9	
0	0	0	0	0	509	464	0	525	39	9	
1	0	0	0	0	492	462	0	536	38	9	
2	0	0	0	0	493	458	0	535	38	9	
3	0	0	0	0	499	456	0	531	38	9	
4	0	0	0	0	507	456	0	523	38	9	
5	0	0	0	0	507	455	0	515	38	9	
6	0	0	0	0	505	453	0	510	38	9	
7	0	0	0	0	517	449	0	507	38	9	
8	0	0	0	0	519	450	0	504	39	9	
9	0	0	0	0	517	453	0	500	38	9	
10	0	0	0	0	501	457	0	515	38	9	
11	0	0	0	0	508	460	0	538	39	9	
12	0	0	0	0	510	458	0	540	38	9	
13	0	0	0	0	505	460	0	537	38	9	
14	0	0	0	0	508	463	0	550	38	9	
15	0	0	0	0	514	465	0	558	38	9	
0	0	0	0	0	518	464	0	551	39	9	
1	0	0	0	0	506	464	0	539	39	9	
2	0	0	0	0	489	462	0	536	38	9	
3	0	0	0	0	493	455	0	519	38	9	
4	0	0	0	0	510	449	0	512	38	9	
5	0	0	0	0	508	446	0	508	38	9	
6	0	0	0	0	509	442	0	506	38	9	
7	0	0	0	0	513	442	0	511	38	9	
8	0	0	0	0	513	446	0	503	39	9	
9	0	0	0	0	511	452	0	503	38	9	
10	0	0	0	0	513	456	0	503	39	9	
11	0	0	0	0	507	460	0	503	38	9	
12	0	0	0	0	507	459	0	518	38	9	
13	0	0	0	0	511	457	0	526	38	9	
14	0	0	0	0	515	459	0	545	38	9	
15	0	0	0	0	521	463	0	546	38	9	
0	0	0	0	0	513	468	0	532	39	9	
1	0	0	0	0	508	473	0	521	38	9	
2	0	0	0	0	494	473	0	535	38	9	
3	0	0	0	0	492	469	0	544	38	9	
4	0	0	0	0	495	464	0	541	38	9	
5	0	0	0	0	499	462	0	532	38	9	
6	0	0	0	0	512	460	0	524	38	9	
7	0	0	0	0	507	460	0	518	38	9	
8	0	0	0	0	511	459	0	526	39	9	
9	0	0	0	0	511	458	0	543	38	9	
10	0	0	0	0	513	458	0	544	38	9	
11	0	0	0	0	508	459	0	536	38	9	
12	0	0	0	0	512	459	0	537	38	9	
13	0	0	0	0	516	458	0	532	38	9	
14	0	0	0	0	509	457	0	522	39	9	
15	0	0	0	0	513	456	0	516	38	9	
0	0	0	0	0	509	462	0	510	39	9	
1	0	0	0	0	513	468	0	508	38	9	
2	0	0	0	0	507	476	0	507	38	9	
3	0	0	0	0	496	480	0	513	38	9	
4	0	0	0	0	495	476	0	540	38	9	
5	0	0	0	0	499	472	0	549	38	9	
6	0	0	0	0	510	469	0	542	38	9	
7	0	0	0	0	513	468	0	548	38	9	
8	0	0	0	0	510	466	0	558	39	9	
9	0	0	0	0	513	465	0	549	38	9	
10	0	0	0	0	510	465	0	537	38	9	
11	0	0	0	0	510	463	0	527	38	9	
12	0	0	0	0	510	463	0	518	38	9	
13	0	0	0	0	510	464	0	512	38	9	
14	0	0	0	0	511	469	0	508	38	9	
15	0	0	0	0	514	474	0	507	38	9	
0	0	0	0	0	516	479	0	504	39	9	
1	0	0	0	0	515	483	0	518	38	9	
2	0	0	0	0	508	489	0	544	38	9	
3	0	0	0	0	502	492	0	551	38	9	
4	0	0	0	0	485	492	0	542	38	9	
5	0	0	0	0	490	488	0	533	38	9	
6	0	0	0	0	502	484	0	526	38	9	
7	0	0	0	0	499	479	0	526	38	9	
8	0	0	0	0	514	475	0	542	39	9	
9	0	0	0	0	514	475	0	538	38	9	
10	0	0	0	0	515	476	0	531	39	9	
11	0	0	0	0	515	478	0	532	38	9	
12	0	0	0	0	505	480	0	528	38	9	
13	0	0	0	0	508	480	0	522	38	9	
14	0	0	0	0	509	480	0	514	38	9	
15	0	0	0	0	514	482	0	507	39	9	
0	0	0	0	0	521	484	0	503	39	9	
1	0	0	0	0	516	488	0	502	38	9	
2	0	0	0	0	512	492	0	503	39	9	
3	0	0	0	0	507	494	0	526	38	9	
4	0	0	0	0	495	492	0	536	38	9	
5	0	0	0	0	486	489	0	530	38	9	
6	0	0	0	0	504	483	0	531	38	9	
7	0	0	0	0	507	476	0	546	38	9	
8	0	0	0	0	509	472	0	544	39	9	
9	0	0	0	0	509	469	0	541	38	9	
10	0	0	0	0	515	469	0	519	38	9	
11	0	0	0	0	508	472	0	508	38	9	
12	0	0	0	0	512	477	0	502	38	9	
13	0	0	0	0	499	478	0	496	38	9	
14	0	0	0	0	509	480	0	491	38	9	
15	0	0	0	0	510	485	0	487	38	9	
0	0	0	0	0	517	489	0	496	39	9	
1	0	0	0	0	512	492	0	521	38	9	
2	0	0	0	0	515	492	0	523	38	9	
3	0	0	0	0	514	492	0	520	38	9	
4	0	0	0	0	513	492	0	514	38	9	
5	0	0	0	0	496	489	0	505	38	9	
6	0	0	0	0	494	486	0	500	38	9	
7	0	0	0	0	495	483	0	497	38	9	
8	0	0	0	0	512	479	0	494	39	9	
9	0	0	0	0	508	478	0	491	38	9	
10	0	0	0	0	510	479	0	497	38	9	
11	0	0	0	0	515	481	0	523	38	9	
12	0	0	0	0	511	484	0	531	38	9	
13	0	0	0	0	513	487	0	548	38	9	
14	0	0	0	0	504	490	0	554	38	9	
15	0	0	0	0	500	491	0	550	38	9	
0	0	0	0	0	511	492	0	542	39	9	
1	0	0	0	0	512	495	0	529	38	9	
2	0	0	0	0	510	496	0	514	38	9	
3	0	0	0	0	518	497	0	504	38	9	
4	0	0	0	0	507	497	0	497	38	9	
5	0	0	0	0	500	496	0	494	38	9	
6	0	0	0	0	494	489	0	490	38	9	
7	0	0	0	0	496	486	0	487	38	9	
8	0	0	0	0	502	487	0	486	39	9	
9	0	0	0	0	511	488	0	486	38	9	
10	0	0	0	0	500	489	0	486	38	9	
11	0	0	0	0	504	490	0	484	38	9	
12	0	0	0	0	515	488	0	483	38	9	
13	0	0	0	0	512	486	0	499	38	9	
14	0	0	0	0	511	486	0	524	38	9	
15	0	0	0	0	508	485	0	526	38	9	
0	0	0	0	0	512	486	0	543	39	9	
1	0	0	0	0	512	491	0	548	38	9	
2	0	0	0	0	515	493	0	536	38	9	
3	0	0	0	0	511	495	0	522	38	9	
4	0	0	0	0	522	498	0	511	38	9	
5	0	0	0	0	509	502	0	500	38	9	
6	0	0	0	0	497	505	0	492	38	9	
7	0	0	0	0	496	507	0	487	38	9	
8	0	0	0	0	505	505	0	483	39	9	
9	0	0	0	0	505	500	0	485	38	9	
10	0	0	0	0	508	495	0	503	39	9	
11	0	0	0	0	506	491	0	512	38	9	
12	0	0	0	0	511	490	0	504	38	9	
13	0	0	0	0	510	490	0	495	38	9	
14	0	0	0	0	514	495	0	487	38	9	
15	0	0	0	0	505	499	0	480	38	9	
0	0	0	0	0	507	502	0	496	39	9	
1	0	0	0	0	506	504	0	524	38	9	
2	0	0	0	0	509	505	0	512	39	9	
3	0	0	0	0	516	504	0	507	38	9	
4	0	0	0	0	508	506	0	499	38	9	
5	0	0	0	0	516	507	0	490	38	9	
6	0	0	0	0	511	506	0	486	38	9	
7	0	0	0	0	502	504	0	481	39	9	
8	0	0	0	0	496	501	0	481	39	9	
9	0	0	0	0	500	499	0	483	38	9	
10	0	0	0	0	499	500	0	500	38	9	
11	0	0	0	0	508	497	0	514	38	9	
12	0	0	0	0	508	491	0	513	38	9	
13	0	0	0	0	517	487	0	509	38	9	
14	0	0	0	0	512	484	0	504	38	9	
15	0	0	0	0	512	482	0	495	39	9	
0	0	0	0	0	510	483	0	503	39	9	
1	0	0	0	0	506	484	0	515	38	9	
2	0	0	0	0	516	486	0	515	38	9	
3	0	0	0	0	512	491	0	507	38	9	
4	0	0	0	0	505	495	0	499	38	9	
5	0	0	0	0	513	499	0	493	38	9	
6	0	0	0	0	510	501	0	490	39	9	
7	0	0	0	0	506	502	0	486	39	9	
8	0	0	0	0	491	501	0	483	39	9	
9	0	0	0	0	495	498	0	481	38	9	
10	0	0	0	0	505	494	0	495	38	9	
11	0	0	0	0	501	493	0	518	38	9	
12	0	0	0	0	512	491	0	522	38	9	
13	0	0	0	0	514	492	0	518	38	9	
14	0	0	0	0	518	492	0	531	38	9	
15	0	0	0	0	514	492	0	539	39	9	
0	0	0	0	0	506	492	0	533	39	9	
1	0	0	0	0	506	490	0	522	38	9	
2	0	0	0	0	501	492	0	510	39	9	
3	0	0	0	0	518	495	0	500	39	9	
4	0	0	0	0	510	497	0	495	38	9	
5	0	0	0	0	514	498	0	489	38	9	
6	0	0	0	0	511	498	0	485	38	9	
7	0	0	0	0	505	497	0	480	38	9	
8	0	0	0	0	499	498	0	480	39	9	
9	0	0	0	0	496	497	0	494	38	9	
10	0	0	0	0	497	496	0	478	38	9	
11	0	0	0	0	502	493	0	480	38	9	
12	0	0	0	0	511	492	0	481	38	9	
13	0	0	0	0	511	493	0	503	38	9	
14	0	0	0	0	514	497	0	521	38	9	
15	0	0	0	0	513	502	0	530	38	9	
0	0	0	0	0	507	504	0	547	39	9	
1	0	0	0	0	504	505	0	542	38	9	
2	0	0	0	0	511	505	0	527	38	9	
3	0	0	0	0	513	504	0	513	38	9	
4	0	0	0	0	517	502	0	502	38	9	
5	0	0	0	0	511	501	0	496	39	9	
6	0	0	0	0	518	501	0	492	38	9	
7	0	0	0	0	512	502	0	488	39	9	
8	0	0	0	0	508	505	0	486	39	9	
9	0	0	0	0	489	507	0	494	38	9	
10	0	0	0	0	486	505	0	519	38	9	
11	0	0	0	0	495	502	0	526	38	9	
12	0	0	0	0	504	498	0	521	38	9	
13	0	0	0	0	515	494	0	513	38	9	
14	0	0	0	0	512	491	0	512	38	9	
15	0	0	0	0	518	489	0	513	39	9	
0	0	0	0	0	511	487	0	511	39	9	
1	0	0	0	0	512	488	0	525	38	9	
2	0	0	0	0	507	491	0	538	38	9	
3	0	0	0	0	511	494	0	537	38	9	
4	0	0	0	0	513	496	0	527	38	9	
5	0	0	0	0	505	499	0	518	38	9	
6	0	0	0	0	512	500	0	511	38	9	
7	0	0	0	0	516	504	0	504	38	9	
8	0	0	0	0	512	505	0	510	39	9	
9	0	0	0	0	499	504	0	527	38	9	
10	0	0	0	0	493	501	0	531	38	9	
11	0	0	0	0	492	499	0	540	38	9	
12	0	0	0	0	513	498	0	518	38	9	
13	0	0	0	0	504	496	0	512	38	9	
14	0	0	0	0	503	496	0	510	38	9	
15	0	0	0	0	512	497	0	504	39	9	
0	0	0	0	0	511	499	0	500	39	9	
1	0	0	0	0	510	502	0	497	38	9	
2	0	0	0	0	512	502	0	503	38	9	
3	0	0	0	0	505	502	0	527	38	9	
4	0	0	0	0	501	500	0	536	38	9	
5	0	0	0	0	515	497	0	529	38	9	
6	0	0	0	0	513	496	0	536	38	9	
7	0	0	0	0	512	496	0	547	39	9	
8	0	0	0	0	512	496	0	541	39	9	
9	0	0	0	0	516	499	0	529	38	9	
10	0	0	0	0	501	500	0	517	38	9	
11	0	0	0	0	496	501	0	519	38	9	
12	0	0	0	0	506	501	0	519	38	9	
13	0	0	0	0	506	500	0	513	38	9	
14	0	0	0	0	506	497	0	507	38	9	
15	0	0	0	0	505	494	0	509	39	9	
0	0	0	0	0	504	493	0	498	39	9	
1	0	0	0	0	507	495	0	495	38	9	
2	0	0	0	0	514	496	0	504	38	9	
3	0	0	0	0	510	495	0	521	38	9	
4	0	0	0	0	510	496	0	531	38	9	
5	0	0	0	0	520	499	0	528	38	9	
6	0	0	0	0	512	499	0	517	39	9	
7	0	0	0	0	514	502	0	509	38	9	
8	0	0	0	0	509	507	0	501	39	9	
9	0	0	0	0	513	512	0	515	38	9	
10	0	0	0	0	504	517	0	530	38	9	
11	0	0	0	0	496	517	0	528	38	9	
12	0	0	0	0	490	512	0	523	38	9	
13	0	0	0	0	498	509	0	516	38	9	
14	0	0	0	0	508	503	0	508	38	9	
15	0	0	0	0	509	498	0	517	38	9	
0	0	0	0	0	513	495	0	529	39	9	
1	0	0	0	0	513	493	0	525	38	9	
2	0	0	0	0	514	492	0	516	38	9	
3	0	0	0	0	513	497	0	507	39	9	
4	0	0	0	0	505	502	0	501	38	9	
5	0	0	0	0	503	503	0	496	39	9	
6	0	0	0	0	515	503	0	493	38	9	
7	0	0	0	0	508	502	0	489	39	9	
8	0	0	0	0	509	502	0	487	39	9	
9	0	0	0	0	516	503	0	499	38	9	
10	0	0	0	0	511	507	0	522	38	9	
11	0	0	0	0	503	512	0	527	38	9	
12	0	0	0	0	489	514	0	520	38	9	
13	0	0	0	0	498	514	0	511	38	9	
14	0	0	0	0	503	510	0	512	38	9	
15	0	0	0	0	507	503	0	509	39	9	
0	0	0	0	0	500	495	0	508	39	9	
1	0	0	0	0	511	490	0	527	38	9	
2	0	0	0	0	518	488	0	532	38	9	
3	0	0	0	0	519	490	0	526	38	9	
4	0	0	0	0	507	492	0	520	38	9	
5	0	0	0	0	508	493	0	506	38	9	
6	0	0	0	0	504	492	0	499	38	9	
7	0	0	0	0	509	492	0	495	39	9	
8	0	0	0	0	514	494	0	502	39	9	
9	0	0	0	0	511	495	0	517	38	9	
10	0	0	0	0	516	496	0	516	38	9	
11	0	0	0	0	507	501	0	512	38	9	
12	0	0	0	0	505	502	0	504	38	9	
13	0	0	0	0	491	498	0	497	38	9	
14	0	0	0	0	501	494	0	493	38	9	
15	0	0	0	0	507	491	0	491	38	9	
0	0	0	0	0	503	489	0	487	39	9	
1	0	0	0	0	509	486	0	483	38	9	
2	0	0	0	0	518	486	0	497	38	9	
3	0	0	0	0	508	485	0	519	38	9	
4	0	0	0	0	510	483	0	524	38	9	
5	0	0	0	0	509	481	0	518	38	9	
6	0	0	0	0	510	482	0	530	38	9	
7	0	0	0	0	510	480	0	533	38	9	
8	0	0	0	0	515	485	0	524	39	9	
9	0	0	0	0	513	487	0	512	38	9	
10	0	0	0	0	510	486	0	504	38	9	
11	0	0	0	0	513	485	0	507	38	9	
12	0	0	0	0	511	486	0	501	38	9	
13	0	0	0	0	495	486	0	496	38	9	
14	0	0	0	0	497	485	0	495	38	9	
15	0	0	0	0	498	485	0	488	38	9	
0	0	0	0	0	508	484	0	485	39	9	
1	0	0	0	0	508	483	0	483	38	9	
2	0	0	0	0	514	481	0	492	38	9	
3	0	0	0	0	516	480	0	520	38	9	
4	0	0	0	0	511	479	0	528	38	9	
5	0	0	0	0	511	480	0	523	38	9	
6	0	0	0	0	507	486	0	547	38	9	
7	0	0	0	0	501	488	0	540	39	9	
8	0	0	0	0	513	487	0	532	39	9	
9	0	0	0	0	510	484	0	523	38	9	
10	0	0	0	0	514	482	0	510	38	9	
11	0	0	0	0	510	483	0	503	38	9	
12	0	0	0	0	508	484	0	499	38	9	
13	0	0	0	0	506	485	0	493	38	9	
14	0	0	0	0	485	486	0	491	38	9	
15	0	0	0	0	503	486	0	491	38	9	
0	0	0	0	0	504	483	0	487	39	9	
1	0	0	0	0	508	477	0	487	38	9	
2	0	0	0	0	505	470	0	490	38	9	
3	0	0	0	0	515	469	0	488	38	9	
4	0	0	0	0	521	470	0	488	38	9	
5	0	0	0	0	515	471	0	508	38	9	
6	0	0	0	0	505	473	0	527	38	9	
7	0	0	0	0	506	476	0	533	38	9	
8	0	0	0	0	507	478	0	559	39	9	
9	0	0	0	0	513	480	0	552	38	9	
10	0	0	0	0	510	482	0	542	38	9	
11	0	0	0	0	509	483	0	538	38	9	
12	0	0	0	0	511	484	0	530	38	9	
13	0	0	0	0	509	484	0	519	38	9	
14	0	0	0	0	503	481	0	511	38	9	
15	0	0	0	0	496	477	0	503	38	9	
0	0	0	0	0	502	472	0	498	39	9	
1	0	0	0	0	505	470	0	496	38	9	
2	0	0	0	0	506	468	0	497	38	9	
3	0	0	0	0	507	467	0	532	38	9	
4	0	0	0	0	512	466	0	532	38	9	
5	0	0	0	0	515	467	0	532	38	9	
6	0	0	0	0	510	467	0	526	38	9	
7	0	0	0	0	503	467	0	518	39	9	
8	0	0	0	0	501	467	0	510	39	9	
9	0	0	0	0	512	467	0	518	38	9	
10	0	0	0	0	511	467	0	537	38	9	
11	0	0	0	0	510	468	0	551	38	9	
12	0	0	0	0	512	468	0	529	38	9	
13	0	0	0	0	515	470	0	516	38	9	
14	0	0	0	0	508	472	0	505	38	9	
15	0	0	0	0	491	472	0	494	39	9	
0	0	0	0	0	496	471	0	490	39	9	
1	0	0	0	0	503	472	0	507	38	9	
2	0	0	0	0	508	470	0	513	38	9	
3	0	0	0	0	510	470	0	513	38	9	
4	0	0	0	0	510	467	0	504	38	9	
5	0	0	0	0	508	465	0	499	38	9	
6	0	0	0	0	510	464	0	494	38	9	
7	0	0	0	0	513	464	0	489	39	9	
8	0	0	0	0	507	465	0	500	39	9	
9	0	0	0	0	500	467	0	514	38	9	
10	0	0	0	0	508	468	0	517	38	9	
11	0	0	0	0	510	470	0	515	38	9	
12	0	0	0	0	511	472	0	517	38	9	
13	0	0	0	0	518	475	0	511	38	9	
14	0	0	0	0	511	478	0	504	38	9	
15	0	0	0	0	509	483	0	499	38	9	
0	0	0	0	0	487	484	0	495	39	9	
1	0	0	0	0	493	480	0	492	38	9	
2	0	0	0	0	504	473	0	488	38	9	
3	0	0	0	0	508	467	0	496	38	9	
4	0	0	0	0	504	463	0	523	38	9	
5	0	0	0	0	516	460	0	529	38	9	
6	0	0	0	0	513	460	0	544	38	9	
7	0	0	0	0	508	459	0	548	38	9	
8	0	0	0	0	507	458	0	538	39	9	
9	0	0	0	0	508	457	0	523	38	9	
10	0	0	0	0	508	457	0	509	38	9	
11	0	0	0	0	512	462	0	498	38	9	
12	0	0	0	0	513	466	0	505	38	9	
13	0	0	0	0	514	468	0	486	38	9	
14	0	0	0	0	505	466	0	484	38	9	
15	0	0	0	0	516	467	0	483	38	9	
0	0	0	0	0	500	467	0	481	39	9	
1	0	0	0	0	491	464	0	480	38	9	
2	0	0	0	0	496	460	0	483	38	9	
3	0	0	0	0	502	460	0	480	38	9	
4	0	0	0	0	512	458	0	481	38	9	
5	0	0	0	0	514	459	0	503	38	9	
6	0	0	0	0	521	464	0	523	38	9	
7	0	0	0	0	512	467	0	533	38	9	
8	0	0	0	0	504	469	0	548	39	9	
9	0	0	0	0	507	468	0	544	38	9	
10	0	0	0	0	510	467	0	532	38	9	
11	0	0	0	0	508	467	0	529	38	9	
12	0	0	0	0	514	467	0	524	38	9	
13	0	0	0	0	519	472	0	518	38	9	
14	0	0	0	0	509	478	0	508	38	9	
15	0	0	0	0	505	481	0	502	39	9	
0	0	0	0	0	511	483	0	498	39	9	
1	0	0	0	0	504	482	0	495	38	9	
2	0	0	0	0	497	477	0	498	38	9	
3	0	0	0	0	491	474	0	522	38	9	
4	0	0	0	0	503	472	0	534	38	9	
5	0	0	0	0	508	471	0	533	38	9	
6	0	0	0	0	503	472	0	534	38	9	
7	0	0	0	0	507	472	0	552	38	9	
8	0	0	0	0	509	473	0	547	39	9	
9	0	0	0	0	511	476	0	537	38	9	
10	0	0	0	0	507	476	0	524	38	9	
11	0	0	0	0	513	477	0	513	38	9	
12	0	0	0	0	521	476	0	508	38	9	
13	0	0	0	0	514	476	0	502	38	9	
14	0	0	0	0	516	473	0	497	38	9	
15	0	0	0	0	508	471	0	494	39	9	
0	0	0	0	0	513	471	0	515	39	9	
1	0	0	0	0	504	473	0	522	39	9	
2	0	0	0	0	486	477	0	529	39	9	
3	0	0	0	0	495	478	0	526	38	9	
4	0	0	0	0	503	477	0	516	38	9	
5	0	0	0	0	507	476	0	511	39	9	
6	0	0	0	0	505	473	0	508	38	9	
7	0	0	0	0	514	471	0	502	38	9	
8	0	0	0	0	510	470	0	501	39	9	
9	0	0	0	0	511	473	0	500	38	9	
10	0	0	0	0	514	475	0	507	38	9	
11	0	0	0	0	512	478	0	533	38	9	
12	0	0	0	0	509	478	0	542	38	9	
13	0	0	0	0	507	479	0	556	38	9	
14	0	0	0	0	511	482	0	564	38	9	
15	0	0	0	0	507	486	0	559	39	9	
0	0	0	0	0	509	490	0	551	39	9	
1	0	0	0	0	518	492	0	538	39	9	
2	0	0	0	0	497	491	0	524	39	9	
3	0	0	0	0	492	487	0	514	38	9	
4	0	0	0	0	497	483	0	508	38	9	
5	0	0	0	0	506	482	0	504	38	9	
6	0	0	0	0	507	479	0	502	38	9	
7	0	0	0	0	508	476	0	502	38	9	
8	0	0	0	0	516	474	0	498	39	9	
9	0	0	0	0	507	473	0	497	38	9	
10	0	0	0	0	507	472	0	497	38	9	
11	0	0	0	0	511	472	0	497	38	9	
12	0	0	0	0	507	471	0	503	38	9	
13	0	0	0	0	512	474	0	512	38	9	
14	0	0	0	0	514	479	0	533	39	9	
15	0	0	0	0	514	484	0	539	38	9	
0	0	0	0	0	505	487	0	556	39	9	
1	0	0	0	0	510	490	0	560	38	9	
2	0	0	0	0	515	492	0	548	38	9	
3	0	0	0	0	497	491	0	536	38	9	
4	0	0	0	0	489	491	0	525	38	9	
5	0	0	0	0	497	490	0	514	38	9	
6	0	0	0	0	508	487	0	508	38	9	
7	0	0	0	0	502	483	0	516	38	9	
8	0	0	0	0	510	480	0	496	39	9	
9	0	0	0	0	517	479	0	496	38	9	
10	0	0	0	0	512	479	0	519	38	9	
11	0	0	0	0	512	479	0	530	38	9	
12	0	0	0	0	507	480	0	529	38	9	
13	0	0	0	0	504	480	0	523	38	9	
14	0	0	0	0	519	481	0	521	38	9	
15	0	0	0	0	505	483	0	525	38	9	
0	0	0	0	0	506	487	0	520	39	9	
1	0	0	0	0	512	490	0	531	38	9	
2	0	0	0	0	506	494	0	551	38	9	
3	0	0	0	0	503	496	0	550	38	9	
4	0	0	0	0	493	495	0	540	38	9	
5	0	0	0	0	499	491	0	529	38	9	
6	0	0	0	0	501	486	0	517	38	9	
7	0	0	0	0	499	481	0	509	38	9	
8	0	0	0	0	504	478	0	508	39	9	
9	0	0	0	0	510	476	0	527	38	9	
10	0	0	0	0	520	477	0	533	38	9	
11	0	0	0	0	516	481	0	527	38	9	
12	0	0	0	0	510	484	0	518	38	9	
13	0	0	0	0	508	487	0	510	38	9	
14	0	0	0	0	508	489	0	503	38	9	
15	0	0	0	0	516	492	0	499	38	9	
0	0	0	0	0	519	492	0	516	39	9	
1	0	0	0	0	508	494	0	527	39	9	
2	0	0	0	0	516	495	0	527	38	9	
3	0	0	0	0	508	494	0	521	38	9	
4	0	0	0	0	495	493	0	510	38	9	
5	0	0	0	0	496	491	0	502	38	9	
6	0	0	0	0	497	488	0	497	38	9	
7	0	0	0	0	507	489	0	495	38	9	
8	0	0	0	0	505	492	0	488	39	9	
9	0	0	0	0	507	494	0	484	38	9	
10	0	0	0	0	509	495	0	483	38	9	
11	0	0	0	0	513	496	0	487	38	9	
12	0	0	0	0	511	499	0	488	38	9	
13	0	0	0	0	503	503	0	489	38	9	
14	0	0	0	0	507	504	0	491	38	9	
15	0	0	0	0	515	506	0	488	38	9	
0	0	0	0	0	518	510	0	485	39	9	
1	0	0	0	0	508	513	0	483	38	9	
2	0	0	0	0	510	517	0	482	38	9	
3	0	0	0	0	513	522	0	483	38	9	
4	0	0	0	0	514	525	0	483	38	9	
5	0	0	0	0	492	526	0	486	38	9	
6	0	0	0	0	493	525	0	497	38	9	
7	0	0	0	0	498	521	0	487	39	9	
8	0	0	0	0	499	517	0	485	39	9	
9	0	0	0	0	503	517	0	484	38	9	
10	0	0	0	0	508	518	0	482	38	9	
11	0	0	0	0	517	520	0	492	38	9	
12	0	0	0	0	517	520	0	519	38	9	
13	0	0	0	0	510	524	0	535	38	9	
14	0	0	0	0	501	526	0	550	39	9	
15	0	0	0	0	507	527	0	559	39	9	
0	0	0	0	0	516	527	0	551	39	9	
1	0	0	0	0	511	526	0	561	38	9	
2	0	0	0	0	506	527	0	560	39	9	
3	0	0	0	0	519	527	0	562	38	9	
4	0	0	0	0	509	527	0	566	38	9	
5	0	0	0	0	516	526	0	552	38	9	
6	0	0	0	0	494	524	0	534	38	9	
7	0	0	0	0	498	521	0	517	38	9	
8	0	0	0	0	498	518	0	504	39	9	
9	0	0	0	0	499	516	0	499	38	9	
10	0	0	0	0	508	512	0	495	38	9	
11	0	0	0	0	519	507	0	516	38	9	
12	0	0	0	0	522	507	0	524	38	9	
13	0	0	0	0	516	507	0	520	38	9	
14	0	0	0	0	504	506	0	533	38	9	
15	0	0	0	0	500	507	0	541	39	9	
0	0	0	0	0	506	505	0	542	39	9	
1	0	0	0	0	513	504	0	531	38	9	
2	0	0	0	0	511	503	0	519	38	9	
3	0	0	0	0	513	500	0	507	38	9	
4	0	0	0	0	511	496	0	497	38	9	
5	0	0	0	0	509	493	0	492	38	9	
6	0	0	0	0	495	492	0	487	38	9	
7	0	0	0	0	493	490	0	483	39	9	
8	0	0	0	0	497	487	0	491	39	9	
9	0	0	0	0	499	485	0	524	39	9	
10	0	0	0	0	508	482	0	514	39	9	
11	0	0	0	0	506	482	0	510	38	9	
12	0	0	0	0	513	483	0	515	38	9	
13	0	0	0	0	512	484	0	497	39	9	
14	0	0	0	0	507	486	0	494	38	9	
15	0	0	0	0	508	487	0	493	38	9	
0	0	0	0	0	512	485	0	487	39	9	
1	0	0	0	0	510	484	0	485	38	9	
2	0	0	0	0	516	484	0	495	38	9	
3	0	0	0	0	513	485	0	518	38	9	
4	0	0	0	0	515	487	0	524	38	9	
5	0	0	0	0	512	492	0	521	38	9	
6	0	0	0	0	509	493	0	527	38	9	
7	0	0	0	0	494	491	0	539	39	9	
8	0	0	0	0	492	487	0	532	39	9	
9	0	0	0	0	492	485	0	521	38	9	
10	0	0	0	0	504	484	0	510	38	9	
11	0	0	0	0	510	481	0	510	38	9	
12	0	0	0	0	513	479	0	508	38	9	
13	0	0	0	0	514	480	0	505	38	9	
14	0	0	0	0	518	482	0	494	38	9	
15	0	0	0	0	510	488	0	487	38	9	
0	0	0	0	0	509	492	0	484	39	9	
1	0	0	0	0	507	492	0	479	38	9	
2	0	0	0	0	511	491	0	483	38	9	
3	0	0	0	0	513	491	0	507	38	9	
4	0	0	0	0	512	490	0	516	38	9	
5	0	0	0	0	510	492	0	512	38	9	
6	0	0	0	0	509	494	0	514	38	9	
7	0	0	0	0	505	495	0	529	39	9	
8	0	0	0	0	492	496	0	526	39	9	
9	0	0	0	0	497	494	0	514	38	9	
10	0	0	0	0	500	494	0	503	38	9	
11	0	0	0	0	501	495	0	494	38	9	
12	0	0	0	0	503	494	0	487	38	9	
13	0	0	0	0	507	494	0	483	38	9	
14	0	0	0	0	516	496	0	478	38	9	
15	0	0	0	0	514	497	0	475	39	9	
0	0	0	0	0	512	500	0	482	39	9	
1	0	0	0	0	505	502	0	499	38	9	
2	0	0	0	0	507	503	0	505	38	9	
3	0	0	0	0	518	503	0	502	38	9	
4	0	0	0	0	512	503	0	496	38	9	
5	0	0	0	0	515	502	0	491	38	9	
6	0	0	0	0	508	502	0	488	38	9	
7	0	0	0	0	515	503	0	485	38	9	
8	0	0	0	0	498	506	0	482	39	9	
9	0	0	0	0	494	506	0	480	38	9	
10	0	0	0	0	500	503	0	484	38	9	
11	0	0	0	0	501	499	0	510	38	9	
12	0	0	0	0	508	496	0	519	38	9	
13	0	0	0	0	504	496	0	534	38	9	
14	0	0	0	0	511	497	0	541	38	9	
15	0	0	0	0	515	499	0	538	39	9	
0	0	0	0	0	513	499	0	529	39	9	
1	0	0	0	0	510	502	0	515	38	9	
2	0	0	0	0	508	502	0	500	38	9	
3	0	0	0	0	507	502	0	489	38	9	
4	0	0	0	0	514	503	0	483	38	9	
5	0	0	0	0	513	505	0	477	38	9	
6	0	0	0	0	509	508	0	473	38	9	
7	0	0	0	0	513	509	0	469	39	9	
8	0	0	0	0	508	509	0	469	39	9	
9	0	0	0	0	493	508	0	467	39	9	
10	0	0	0	0	496	507	0	464	38	9	
11	0	0	0	0	499	505	0	464	38	9	
12	0	0	0	0	511	504	0	466	38	9	
13	0	0	0	0	507	505	0	478	39	9	
14	0	0	0	0	499	507	0	498	39	9	
15	0	0	0	0	511	506	0	504	39	9	
0	0	0	0	0	516	506	0	519	39	9	
1	0	0	0	0	508	508	0	524	38	9	
2	0	0	0	0	498	511	0	515	38	9	
3	0	0	0	0	507	510	0	505	38	9	
4	0	0	0	0	515	509	0	495	38	9	
5	0	0	0	0	512	508	0	486	38	9	
6	0	0	0	0	512	505	0	479	38	9	
7	0	0	0	0	513	504	0	479	38	9	
8	0	0	0	0	503	500	0	473	39	9	
9	0	0	0	0	507	495	0	478	38	9	
10	0	0	0	0	498	489	0	503	38	9	
11	0	0	0	0	498	483	0	510	38	9	
12	0	0	0	0	510	478	0	507	38	9	
13	0	0	0	0	510	473	0	502	38	9	
14	0	0	0	0	507	468	0	499	38	9	
15	0	0	0	0	511	464	0	503	39	9	
0	0	0	0	0	509	462	0	499	39	9	
1	0	0	0	0	511	462	0	512	38	9	
2	0	0	0	0	516	462	0	540	38	9	
3	0	0	0	0	505	465	0	534	38	9	
4	0	0	0	0	517	469	0	526	38	9	
5	0	0	0	0	514	476	0	516	38	9	
6	0	0	0	0	507	484	0	504	38	9	
7	0	0	0	0	510	493	0	498	39	9	
8	0	0	0	0	513	504	0	496	39	9	
9	0	0	0	0	513	518	0	515	38	9	
10	0	0	0	0	502	532	0	522	38	9	
11	0	0	0	0	489	545	0	518	38	9	
12	0	0	0	0	497	559	0	513	38	9	
13	0	0	0	0	504	574	0	510	38	9	
14	0	0	0	0	501	589	0	499	38	9	
15	0	0	0	0	507	604	0	495	38	9	
0	0	0	0	0	512	620	0	509	39	9	
1	0	0	0	0	517	639	0	522	38	9	
2	0	0	0	0	513	659	0	523	38	9	
3	0	0	0	0	506	684	0	517	38	9	
4	0	0	0	0	503	710	0	510	38	9	
5	0	0	0	0	513	736	0	504	38	9	
6	0	0	0	0	514	765	0	499	38	9	
7	0	0	0	0	524	791	0	499	39	9	
8	0	0	0	0	512	813	0	513	39	9	
9	0	0	0	0	512	835	0	495	38	9	
10	0	0	0	0	510	858	0	511	38	9	
11	0	0	0	0	486	874	0	537	38	9	
12	0	0	0	0	496	888	0	540	38	9	
13	0	0	0	0	499	901	0	537	38	9	
14	0	0	0	0	499	911	0	553	38	9	
15	0	0	0	0	511	916	0	558	38	9	
0	0	0	0	0	510	923	0	550	39	9	
1	0	0	0	0	509	929	0	539	38	9	
2	0	0	0	0	511	932	0	527	38	9	
3	0	0	0	0	514	929	0	518	38	9	
4	0	0	0	0	509	923	0	511	38	9	
5	0	0	0	0	510	917	0	506	38	9	
6	0	0	0	0	509	913	0	516	38	9	
7	0	0	0	0	514	907	0	501	39	9	
8	0	0	0	0	510	893	0	499	39	9	
9	0	0	0	0	512	875	0	499	38	9	
10	0	0	0	0	512	856	0	507	38	9	
11	0	0	0	0	505	832	0	535	38	9	
12	0	0	0	0	491	802	0	546	38	9	
13	0	0	0	0	498	769	0	562	38	9	
14	0	0	0	0	506	729	0	568	38	9	
15	0	0	0	0	506	681	0	553	38	9	
0	0	0	0	0	509	633	0	537	39	9	
1	0	0	0	0	511	591	0	536	38	9	
2	0	0	0	0	516	557	0	506	38	9	
3	0	0	0	0	505	528	0	500	38	9	
4	0	0	0	0	513	503	0	497	38	9	
5	0	0	0	0	510	481	0	493	38	9	
6	0	0	0	0	508	463	0	493	38	9	
7	0	0	0	0	510	447	0	493	39	9	
8	0	0	0	0	516	435	0	487	39	9	
9	0	0	0	0	512	427	0	482	38	9	
10	0	0	0	0	509	419	0	482	38	9	
11	0	0	0	0	505	412	0	484	38	9	
12	0	0	0	0	500	405	0	513	38	9	
13	0	0	0	0	494	400	0	525	38	9	
14	0	0	0	0	499	395	0	536	38	9	
15	0	0	0	0	504	391	0	556	39	9	
0	0	0	0	0	510	388	0	550	39	9	
1	0	0	0	0	510	388	0	547	38	9	
2	0	0	0	0	508	392	0	535	38	9	
3	0	0	0	0	507	399	0	521	38	9	
4	0	0	0	0	507	404	0	511	38	9	
5	0	0	0	0	513	407	0	502	38	9	
6	0	0	0	0	515	408	0	495	38	9	
7	0	0	0	0	510	410	0	492	38	9	
8	0	0	0	0	512	415	0	488	39	9	
9	0	0	0	0	517	418	0	489	38	9	
10	0	0	0	0	508	417	0	488	38	9	
11	0	0	0	0	510	419	0	487	38	9	
12	0	0	0	0	509	420	0	486	38	9	
13	0	0	0	0	498	422	0	487	38	9	
14	0	0	0	0	492	422	0	491	38	9	
15	0	0	0	0	497	419	0	515	38	9	
0	0	0	0	0	510	416	0	524	39	9	
1	0	0	0	0	512	419	0	534	38	9	
2	0	0	0	0	509	420	0	551	38	9	
3	0	0	0	0	512	420	0	548	38	9	
4	0	0	0	0	511	421	0	537	38	9	
5	0	0	0	0	514	422	0	524	38	9	
6	0	0	0	0	504	424	0	512	38	9	
7	0	0	0	0	508	427	0	504	39	9	
8	0	0	0	0	510	429	0	503	39	9	
9	0	0	0	0	517	431	0	523	38	9	
10	0	0	0	0	513	434	0	529	39	9	
11	0	0	0	0	514	438	0	524	39	9	
12	0	0	0	0	510	438	0	525	38	9	
13	0	0	0	0	508	435	0	533	38	9	
14	0	0	0	0	495	433	0	516	38	9	
15	0	0	0	0	501	428	0	510	38	9	
0	0	0	0	0	500	425	0	505	39	9	
1	0	0	0	0	511	420	0	508	38	9	
2	0	0	0	0	513	420	0	529	38	9	
3	0	0	0	0	507	423	0	533	38	9	
4	0	0	0	0	514	425	0	526	38	9	
5	0	0	0	0	512	429	0	517	38	9	
6	0	0	0	0	507	434	0	507	39	9	
7	0	0	0	0	506	438	0	502	39	9	
8	0	0	0	0	502	441	0	499	39	9	
9	0	0	0	0	510	446	0	514	38	9	
10	0	0	0	0	513	450	0	528	38	9	
11	0	0	0	0	516	453	0	528	38	9	
12	0	0	0	0	513	455	0	518	38	9	
13	0	0	0	0	518	456	0	508	38	9	
14	0	0	0	0	504	456	0	501	38	9	
15	0	0	0	0	488	454	0	495	38	9	
0	0	0	0	0	491	452	0	501	39	9	
1	0	0	0	0	504	451	0	519	39	9	
2	0	0	0	0	505	450	0	522	39	9	
3	0	0	0	0	510	450	0	532	38	9	
4	0	0	0	0	513	452	0	510	38	9	
5	0	0	0	0	508	458	0	503	39	9	
6	0	0	0	0	508	463	0	510	39	9	
7	0	0	0	0	513	467	0	493	38	9	
8	0	0	0	0	507	469	0	490	39	9	
9	0	0	0	0	506	465	0	489	38	9	
10	0	0	0	0	517	462	0	496	39	9	
11	0	0	0	0	508	462	0	523	38	9	
12	0	0	0	0	515	465	0	533	38	9	
13	0	0	0	0	510	470	0	548	38	9	
14	0	0	0	0	509	473	0	554	38	9	
15	0	0	0	0	498	473	0	557	39	9	
0	0	0	0	0	492	475	0	542	39	9	
1	0	0	0	0	499	476	0	529	38	9	
2	0	0	0	0	510	475	0	515	38	9	
3	0	0	0	0	503	473	0	507	38	9	
4	0	0	0	0	513	472	0	497	38	9	
5	0	0	0	0	510	471	0	492	38	9	
6	0	0	0	0	508	472	0	490	38	9	
7	0	0	0	0	518	474	0	486	38	9	
8	0	0	0	0	513	478	0	487	39	9	
9	0	0	0	0	508	480	0	485	39	9	
10	0	0	0	0	515	480	0	488	38	9	
11	0	0	0	0	509	482	0	483	38	9	
12	0	0	0	0	518	483	0	483	38	9	
13	0	0	0	0	517	484	0	481	38	9	
14	0	0	0	0	509	484	0	492	38	9	
15	0	0	0	0	505	485	0	510	39	9	
0	0	0	0	0	487	486	0	514	39	9	
1	0	0	0	0	494	485	0	531	38	9	
2	0	0	0	0	505	485	0	545	38	9	
3	0	0	0	0	504	487	0	536	38	9	
4	0	0	0	0	504	487	0	524	38	9	
5	0	0	0	0	512	487	0	510	38	9	
6	0	0	0	0	521	487	0	502	38	9	
7	0	0	0	0	512	487	0	492	38	9	
8	0	0	0	0	513	487	0	497	39	9	
9	0	0	0	0	506	486	0	515	38	9	
10	0	0	0	0	507	486	0	518	38	9	
11	0	0	0	0	512	487	0	513	38	9	
12	0	0	0	0	513	486	0	508	38	9	
13	0	0	0	0	513	487	0	508	38	9	
14	0	0	0	0	511	492	0	508	38	9	
15	0	0	0	0	515	494	0	503	39	9	
0	0	0	0	0	501	495	0	520	39	9	
1	0	0	0	0	492	495	0	531	38	9	
2	0	0	0	0	494	493	0	527	39	9	
3	0	0	0	0	503	494	0	519	38	9	
4	0	0	0	0	503	492	0	509	38	9	
5	0	0	0	0	503	488	0	497	38	9	
6	0	0	0	0	512	487	0	492	38	9	
7	0	0	0	0	515	489	0	486	38	9	
8	0	0	0	0	513	492	0	484	39	9	
9	0	0	0	0	511	499	0	480	38	9	
10	0	0	0	0	507	504	0	499	38	9	
11	0	0	0	0	508	507	0	516	38	9	
12	0	0	0	0	505	509	0	516	38	9	
13	0	0	0	0	516	511	0	509	38	9	
14	0	0	0	0	506	513	0	500	38	9	
15	0	0	0	0	512	514	0	494	38	9	
0	0	0	0	0	514	515	0	499	39	9	
1	0	0	0	0	494	513	0	511	38	9	
2	0	0	0	0	489	510	0	510	38	9	
3	0	0	0	0	497	508	0	503	38	9	
4	0	0	0	0	504	506	0	493	38	9	
5	0	0	0	0	511	503	0	486	38	9	
6	0	0	0	0	509	500	0	481	38	9	
7	0	0	0	0	512	501	0	478	39	9	
8	0	0	0	0	516	505	0	475	39	9	
9	0	0	0	0	507	507	0	470	38	9	
10	0	0	0	0	502	510	0	485	38	9	
11	0	0	0	0	505	510	0	505	38	9	
12	0	0	0	0	513	512	0	510	38	9	
13	0	0	0	0	515	513	0	507	38	9	
14	0	0	0	0	510	513	0	520	38	9	
15	0	0	0	0	520	516	0	525	39	9	
0	0	0	0	0	515	516	0	517	39	9	
1	0	0	0	0	501	513	0	510	38	9	
2	0	0	0	0	496	512	0	495	38	9	
3	0	0	0	0	507	512	0	486	38	9	
4	0	0	0	0	504	512	0	482	38	9	
5	0	0	0	0	503	511	0	479	38	9	
6	0	0	0	0	504	511	0	477	38	9	
7	0	0	0	0	516	509	0	475	38	9	
8	0	0	0	0	518	506	0	475	39	9	
9	0	0	0	0	514	508	0	476	38	9	
10	0	0	0	0	512	512	0	475	38	9	
11	0	0	0	0	506	514	0	476	38	9	
12	0	0	0	0	500	515	0	479	38	9	
13	0	0	0	0	506	516	0	497	38	9	
14	0	0	0	0	515	520	0	515	38	9	
15	0	0	0	0	515	523	0	525	39	9	
0	0	0	0	0	516	528	0	539	39	9	
1	0	0	0	0	510	533	0	535	38	9	
2	0	0	0	0	501	535	0	521	38	9	
3	0	0	0	0	488	535	0	507	38	9	
4	0	0	0	0	499	532	0	497	38	9	
5	0	0	0	0	509	529	0	490	38	9	
6	0	0	0	0	499	521	0	487	38	9	
7	0	0	0	0	512	515	0	481	38	9	
8	0	0	0	0	512	518	0	480	39	9	
9	0	0	0	0	513	523	0	490	38	9	
10	0	0	0	0	508	528	0	515	38	9	
11	0	0	0	0	509	532	0	521	38	9	
12	0	0	0	0	510	534	0	516	38	9	
13	0	0	0	0	510	538	0	508	38	9	
14	0	0	0	0	511	540	0	508	38	9	
15	0	0	0	0	516	542	0	508	39	9	
0	0	0	0	0	512	543	0	504	39	9	
1	0	0	0	0	505	542	0	521	38	9	
2	0	0	0	0	511	545	0	534	38	9	
3	0	0	0	0	498	548	0	532	39	9	
4	0	0	0	0	497	547	0	524	38	9	
5	0	0	0	0	502	545	0	516	38	9	
6	0	0	0	0	501	540	0	505	38	9	
7	0	0	0	0	505	533	0	499	39	9	
8	0	0	0	0	508	527	0	503	39	9	
9	0	0	0	0	510	523	0	522	38	9	
10	0	0	0	0	507	522	0	523	38	9	
11	0	0	0	0	512	526	0	519	38	9	
12	0	0	0	0	509	535	0	511	38	9	
13	0	0	0	0	511	542	0	504	38	9	
14	0	0	0	0	516	548	0	500	38	9	
15	0	0	0	0	512	554	0	497	38	9	
0	0	0	0	0	506	555	0	494	39	9	
1	0	0	0	0	510	555	0	490	38	9	
2	0	0	0	0	513	558	0	499	39	9	
3	0	0	0	0	509	559	0	523	38	9	
4	0	0	0	0	493	556	0	528	38	9	
5	0	0	0	0	497	554	0	524	39	9	
6	0	0	0	0	496	552	0	513	38	9	
7	0	0	0	0	510	550	0	500	39	9	
8	0	0	0	0	509	550	0	495	39	9	
9	0	0	0	0	515	549	0	512	38	9	
10	0	0	0	0	519	547	0	521	38	9	
11	0	0	0	0	517	545	0	517	38	9	
12	0	0	0	0	511	549	0	519	38	9	
13	0	0	0	0	507	549	0	521	38	9	
14	0	0	0	0	510	546	0	514	38	9	
15	0	0	0	0	512	553	0	528	38	9	
0	0	0	0	0	511	557	0	540	39	9	
1	0	0	0	0	511	560	0	533	38	9	
2	0	0	0	0	515	563	0	523	38	9	
3	0	0	0	0	507	561	0	513	38	9	
4	0	0	0	0	495	557	0	507	38	9	
5	0	0	0	0	492	553	0	500	38	9	
6	0	0	0	0	492	552	0	498	38	9	
7	0	0	0	0	503	553	0	496	38	9	
8	0	0	0	0	504	557	0	495	39	9	
9	0	0	0	0	510	560	0	516	38	9	
10	0	0	0	0	518	561	0	536	38	9	
11	0	0	0	0	514	561	0	542	38	9	
12	0	0	0	0	512	561	0	532	38	9	
13	0	0	0	0	506	561	0	525	38	9	
14	0	0	0	0	510	560	0	516	38	9	
15	0	0	0	0	511	559	0	527	39	9	
0	0	0	0	0	518	559	0	537	39	9	
1	0	0	0	0	516	558	0	532	38	9	
2	0	0	0	0	512	559	0	526	38	9	
3	0	0	0	0	508	566	0	520	38	9	
4	0	0	0	0	513	571	0	514	38	9	
5	0	0	0	0	488	569	0	510	38	9	
6	0	0	0	0	489	564	0	512	38	9	
7	0	0	0	0	499	560	0	505	38	9	
8	0	0	0	0	505	556	0	503	39	9	
9	0	0	0	0	508	553	0	517	38	9	
10	0	0	0	0	511	552	0	547	38	9	
11	0	0	0	0	519	553	0	547	38	9	
12	0	0	0	0	517	555	0	544	38	9	
13	0	0	0	0	512	556	0	545	38	9	
14	0	0	0	0	509	556	0	537	38	9	
15	0	0	0	0	503	554	0	536	38	9	
0	0	0	0	0	512	553	0	552	39	9	
1	0	0	0	0	510	554	0	551	38	9	
2	0	0	0	0	511	556	0	540	38	9	
3	0	0	0	0	515	559	0	528	38	9	
4	0	0	0	0	505	562	0	519	38	9	
5	0	0	0	0	504	564	0	514	38	9	
6	0	0	0	0	493	562	0	507	38	9	
7	0	0	0	0	500	557	0	504	38	9	
8	0	0	0	0	498	559	0	500	39	9	
9	0	0	0	0	504	560	0	511	38	9	
10	0	0	0	0	502	558	0	534	38	9	
11	0	0	0	0	511	555	0	542	38	9	
12	0	0	0	0	518	551	0	541	38	9	
13	0	0	0	0	514	549	0	528	38	9	
14	0	0	0	0	512	548	0	521	38	9	
15	0	0	0	0	500	547	0	519	38	9	
0	0	0	0	0	508	547	0	537	39	9	
1	0	0	0	0	514	547	0	543	38	9	
2	0	0	0	0	517	548	0	540	38	9	
3	0	0	0	0	509	550	0	536	38	9	
4	0	0	0	0	511	550	0	523	38	9	
5	0	0	0	0	512	549	0	516	38	9	
6	0	0	0	0	498	551	0	511	38	9	
7	0	0	0	0	495	556	0	507	38	9	
8	0	0	0	0	501	557	0	504	39	9	
9	0	0	0	0	507	554	0	507	38	9	
10	0	0	0	0	502	548	0	532	38	9	
11	0	0	0	0	505	539	0	540	38	9	
12	0	0	0	0	514	535	0	536	38	9	
13	0	0	0	0	514	534	0	536	39	9	
14	0	0	0	0	505	533	0	533	38	9	
15	0	0	0	0	510	533	0	525	39	9	
0	0	0	0	0	510	532	0	540	39	9	
1	0	0	0	0	512	532	0	553	38	9	
2	0	0	0	0	509	532	0	548	39	9	
3	0	0	0	0	512	531	0	537	39	9	
4	0	0	0	0	514	529	0	526	38	9	
5	0	0	0	0	516	529	0	524	38	9	
6	0	0	0	0	511	530	0	508	39	9	
7	0	0	0	0	496	531	0	504	39	9	
8	0	0	0	0	498	528	0	501	39	9	
9	0	0	0	0	501	522	0	499	39	9	
10	0	0	0	0	499	515	0	515	38	9	
11	0	0	0	0	511	511	0	532	38	9	
12	0	0	0	0	508	508	0	534	38	9	
13	0	0	0	0	515	507	0	528	38	9	
14	0	0	0	0	512	506	0	519	38	9	
15	0	0	0	0	511	504	0	512	38	9	
0	0	0	0	0	501	501	0	521	39	9	
1	0	0	0	0	509	497	0	534	38	9	
2	0	0	0	0	511	494	0	532	38	9	
3	0	0	0	0	512	495	0	525	38	9	
4	0	0	0	0	513	495	0	519	38	9	
5	0	0	0	0	515	494	0	507	38	9	
6	0	0	0	0	510	492	0	501	38	9	
7	0	0	0	0	499	492	0	499	38	9	
8	0	0	0	0	498	494	0	495	39	9	
9	0	0	0	0	502	492	0	491	38	9	
10	0	0	0	0	499	489	0	487	38	9	
11	0	0	0	0	504	487	0	489	38	9	
12	0	0	0	0	511	484	0	484	38	9	
13	0	0	0	0	513	482	0	485	38	9	
14	0	0	0	0	513	480	0	505	38	9	
15	0	0	0	0	521	479	0	525	38	9	
0	0	0	0	0	517	482	0	527	39	9	
1	0	0	0	0	509	484	0	544	38	9	
2	0	0	0	0	508	484	0	544	38	9	
3	0	0	0	0	507	486	0	547	38	9	
4	0	0	0	0	510	486	0	528	38	9	
5	0	0	0	0	512	487	0	516	39	9	
6	0	0	0	0	518	486	0	504	38	9	
7	0	0	0	0	509	485	0	495	39	9	
8	0	0	0	0	502	484	0	489	39	9	
9	0	0	0	0	495	480	0	486	38	9	
10	0	0	0	0	495	478	0	483	38	9	
11	0	0	0	0	505	475	0	487	38	9	
12	0	0	0	0	506	471	0	511	38	9	
13	0	0	0	0	505	469	0	524	38	9	
14	0	0	0	0	512	470	0	536	38	9	
15	0	0	0	0	511	472	0	550	39	9	
0	0	0	0	0	507	475	0	542	39	9	
1	0	0	0	0	508	478	0	542	38	9	
2	0	0	0	0	511	479	0	512	38	9	
3	0	0	0	0	505	480	0	503	38	9	
4	0	0	0	0	515	481	0	495	38	9	
5	0	0	0	0	519	484	0	494	38	9	
6	0	0	0	0	511	485	0	488	38	9	
7	0	0	0	0	515	487	0	486	38	9	
8	0	0	0	0	510	486	0	486	39	9	
9	0	0	0	0	503	485	0	484	38	9	
10	0	0	0	0	490	481	0	481	38	9	
11	0	0	0	0	492	479	0	480	38	9	
12	0	0	0	0	511	478	0	480	38	9	
13	0	0	0	0	508	476	0	496	38	9	
14	0	0	0	0	508	476	0	516	38	9	
15	0	0	0	0	515	478	0	521	38	9	
0	0	0	0	0	515	480	0	540	39	9	
1	0	0	0	0	515	482	0	542	38	9	
2	0	0	0	0	501	482	0	540	38	9	
3	0	0	0	0	507	483	0	531	38	9	
4	0	0	0	0	515	484	0	515	38	9	
5	0	0	0	0	509	487	0	503	38	9	
6	0	0	0	0	513	488	0	492	38	9	
7	0	0	0	0	513	489	0	488	38	9	
8	0	0	0	0	510	488	0	482	39	9	
9	0	0	0	0	502	489	0	481	38	9	
10	0	0	0	0	487	488	0	479	38	9	
11	0	0	0	0	496	484	0	501	38	9	
12	0	0	0	0	504	482	0	515	38	9	
13	0	0	0	0	504	483	0	516	39	9	
14	0	0	0	0	505	485	0	516	38	9	
15	0	0	0	0	514	486	0	535	38	9	
0	0	0	0	0	515	487	0	536	39	9	
1	0	0	0	0	520	489	0	526	38	9	
2	0	0	0	0	508	489	0	513	38	9	
3	0	0	0	0	501	489	0	503	38	9	
4	0	0	0	0	506	487	0	496	38	9	
5	0	0	0	0	511	486	0	490	38	9	
6	0	0	0	0	511	486	0	489	38	9	
7	0	0	0	0	504	489	0	486	38	9	
8	0	0	0	0	517	494	0	490	39	9	
9	0	0	0	0	508	497	0	512	38	9	
10	0	0	0	0	504	496	0	523	38	9	
11	0	0	0	0	500	492	0	518	38	9	
12	0	0	0	0	494	493	0	512	38	9	
13	0	0	0	0	501	496	0	511	38	9	
14	0	0	0	0	508	496	0	515	39	9	
15	0	0	0	0	507	496	0	510	38	9	
0	0	0	0	0	509	496	0	521	39	9	
1	0	0	0	0	514	497	0	542	39	9	
2	0	0	0	0	519	497	0	541	38	9	
3	0	0	0	0	508	499	0	533	38	9	
4	0	0	0	0	512	499	0	524	38	9	
5	0	0	0	0	505	500	0	516	38	9	
6	0	0	0	0	512	499	0	507	39	9	
7	0	0	0	0	517	499	0	504	39	9	
8	0	0	0	0	507	498	0	513	39	9	
9	0	0	0	0	510	497	0	498	38	9	
10	0	0	0	0	509	498	0	512	38	9	
11	0	0	0	0	503	502	0	536	38	9	
12	0	0	0	0	495	506	0	542	38	9	
13	0	0	0	0	501	506	0	534	39	9	
14	0	0	0	0	500	505	0	546	39	9	
15	0	0	0	0	504	503	0	548	38	9	
0	0	0	0	0	503	499	0	537	39	9	
1	0	0	0	0	512	500	0	526	38	9	
2	0	0	0	0	508	504	0	514	38	9	
3	0	0	0	0	517	504	0	507	38	9	
4	0	0	0	0	502	503	0	499	38	9	
5	0	0	0	0	508	502	0	497	39	9	
6	0	0	0	0	518	503	0	495	38	9	
