# OpenSignals Text File Format. Version 1
# {"98:D3:51:FD:71:01": {"position": 0, "device": "bitalino_rev", "device name": "98:D3:51:FD:71:01", "device connection": "BTH98:D3:51:FD:71:01", "sampling rate": 1000, "resolution": [4, 1, 1, 1, 1, 10, 10, 10, 10, 6, 6], "firmware version": 1282, "comments": "", "keywords": "", "mode": 0, "sync interval": 2, "date": "2024-6-28", "time": "8:51:44.928", "channels": [1, 2, 3, 4, 5, 6], "sensor": ["RAW", "ECGBIT", "RAW", "RAW", "RAW", "RAW"], "label": ["A1", "A2", "A3", "A4", "A5", "A6"], "column": ["nSeq", "I1", "I2", "O1", "O2", "A1", "A2", "A3", "A4", "A5", "A6"], "special": [{}, {}, {}, {}, {}, {}], "digital IO": [0, 0, 1, 1]}}
# EndOfHeader
0	0	0	0	0	510	398	0	529	39	2	
1	0	0	0	0	504	400	0	527	38	2	
2	0	0	0	0	505	403	0	527	38	2	
3	0	0	0	0	499	406	0	525	38	2	
4	0	0	0	0	511	408	0	520	38	2	
5	0	0	0	0	512	409	0	522	39	3	
6	0	0	0	0	510	408	0	518	39	3	
7	0	0	0	0	509	408	0	524	38	2	
8	0	0	0	0	508	408	0	538	38	2	
9	0	0	0	0	514	412	0	540	38	2	
10	0	0	0	0	511	416	0	541	38	2	
11	0	0	0	0	503	418	0	537	39	2	
12	0	0	0	0	504	419	0	533	39	3	
13	0	0	0	0	506	419	0	531	38	3	
14	0	0	0	0	511	420	0	525	39	3	
15	0	0	0	0	508	421	0	523	39	3	
0	0	0	0	0	501	420	0	529	38	2	
1	0	0	0	0	506	420	0	551	38	2	
2	0	0	0	0	513	421	0	562	38	2	
3	0	0	0	0	513	419	0	551	38	2	
4	0	0	0	0	507	419	0	546	38	3	
5	0	0	0	0	504	419	0	538	39	3	
6	0	0	0	0	504	419	0	531	39	3	
7	0	0	0	0	511	420	0	539	38	3	
8	0	0	0	0	509	420	0	524	38	2	
9	0	0	0	0	508	422	0	523	38	2	
10	0	0	0	0	508	422	0	528	38	2	
11	0	0	0	0	508	423	0	551	38	2	
12	0	0	0	0	506	425	0	560	39	2	
13	0	0	0	0	510	427	0	551	39	3	
14	0	0	0	0	503	430	0	556	39	3	
15	0	0	0	0	503	432	0	570	38	3	
0	0	0	0	0	505	435	0	566	39	2	
1	0	0	0	0	510	437	0	558	38	2	
2	0	0	0	0	505	439	0	553	38	2	
3	0	0	0	0	507	441	0	544	38	2	
4	0	0	0	0	503	440	0	535	38	2	
5	0	0	0	0	508	440	0	527	38	3	
6	0	0	0	0	513	440	0	524	39	3	
7	0	0	0	0	505	440	0	514	38	3	
8	0	0	0	0	504	440	0	511	38	3	
9	0	0	0	0	505	440	0	517	38	2	
10	0	0	0	0	508	442	0	542	38	2	
11	0	0	0	0	507	443	0	551	38	2	
12	0	0	0	0	512	443	0	543	38	2	
13	0	0	0	0	509	444	0	534	38	3	
14	0	0	0	0	504	444	0	525	39	3	
15	0	0	0	0	499	442	0	520	38	3	
0	0	0	0	0	507	440	0	536	38	3	
1	0	0	0	0	507	441	0	545	38	2	
2	0	0	0	0	511	441	0	540	38	2	
3	0	0	0	0	508	442	0	534	38	2	
4	0	0	0	0	513	442	0	527	38	2	
5	0	0	0	0	508	443	0	523	38	3	
6	0	0	0	0	510	444	0	514	39	3	
7	0	0	0	0	499	447	0	511	38	3	
8	0	0	0	0	504	449	0	507	38	3	
9	0	0	0	0	515	451	0	504	38	2	
10	0	0	0	0	503	451	0	521	38	2	
11	0	0	0	0	512	451	0	535	38	2	
12	0	0	0	0	503	451	0	532	38	2	
13	0	0	0	0	507	451	0	524	39	2	
14	0	0	0	0	501	452	0	518	39	3	
15	0	0	0	0	511	453	0	513	38	3	
0	0	0	0	0	507	453	0	526	38	3	
1	0	0	0	0	514	455	0	537	38	3	
2	0	0	0	0	506	454	0	534	38	2	
3	0	0	0	0	507	455	0	530	38	2	
4	0	0	0	0	512	458	0	531	38	2	
5	0	0	0	0	498	459	0	525	38	2	
6	0	0	0	0	504	462	0	517	39	3	
7	0	0	0	0	507	462	0	510	38	3	
8	0	0	0	0	508	463	0	506	38	3	
9	0	0	0	0	511	463	0	502	38	3	
10	0	0	0	0	511	464	0	499	38	2	
11	0	0	0	0	503	468	0	510	38	2	
12	0	0	0	0	505	470	0	531	38	2	
13	0	0	0	0	509	469	0	536	38	2	
14	0	0	0	0	504	468	0	529	39	2	
15	0	0	0	0	505	467	0	521	38	3	
0	0	0	0	0	500	465	0	513	38	3	
1	0	0	0	0	511	463	0	513	38	3	
2	0	0	0	0	506	464	0	534	38	2	
3	0	0	0	0	511	463	0	537	38	2	
4	0	0	0	0	509	459	0	532	38	2	
5	0	0	0	0	509	457	0	521	38	2	
6	0	0	0	0	510	455	0	513	39	2	
7	0	0	0	0	503	455	0	512	39	3	
8	0	0	0	0	505	455	0	524	38	3	
9	0	0	0	0	512	456	0	535	38	3	
10	0	0	0	0	507	459	0	530	38	3	
11	0	0	0	0	504	460	0	522	39	2	
12	0	0	0	0	512	462	0	517	39	2	
13	0	0	0	0	504	463	0	512	39	2	
14	0	0	0	0	510	463	0	522	39	2	
15	0	0	0	0	507	466	0	505	38	3	
0	0	0	0	0	510	467	0	499	39	3	
1	0	0	0	0	504	466	0	498	38	3	
2	0	0	0	0	501	464	0	518	38	3	
3	0	0	0	0	506	465	0	531	38	2	
4	0	0	0	0	511	466	0	530	38	2	
5	0	0	0	0	511	465	0	534	39	2	
6	0	0	0	0	510	466	0	534	39	2	
7	0	0	0	0	506	466	0	527	39	2	
8	0	0	0	0	511	465	0	539	38	3	
9	0	0	0	0	504	466	0	555	38	3	
10	0	0	0	0	517	466	0	561	38	3	
11	0	0	0	0	508	467	0	576	38	2	
12	0	0	0	0	502	466	0	573	39	2	
13	0	0	0	0	509	464	0	558	39	2	
14	0	0	0	0	502	464	0	540	39	2	
15	0	0	0	0	503	464	0	528	38	2	
0	0	0	0	0	506	463	0	517	38	3	
1	0	0	0	0	507	460	0	528	38	3	
2	0	0	0	0	515	457	0	536	38	3	
3	0	0	0	0	508	457	0	531	38	3	
4	0	0	0	0	513	456	0	525	39	2	
5	0	0	0	0	500	455	0	515	39	2	
6	0	0	0	0	511	454	0	508	39	2	
7	0	0	0	0	509	452	0	500	38	2	
8	0	0	0	0	510	451	0	507	38	2	
9	0	0	0	0	504	451	0	523	38	2	
10	0	0	0	0	506	451	0	523	38	3	
11	0	0	0	0	504	454	0	517	38	3	
12	0	0	0	0	513	456	0	509	38	2	
13	0	0	0	0	508	458	0	508	38	2	
14	0	0	0	0	502	459	0	504	39	2	
15	0	0	0	0	502	459	0	500	38	2	
0	0	0	0	0	504	460	0	496	38	2	
1	0	0	0	0	513	461	0	490	38	2	
2	0	0	0	0	500	462	0	501	38	3	
3	0	0	0	0	506	464	0	527	38	3	
4	0	0	0	0	506	464	0	531	38	2	
5	0	0	0	0	510	464	0	528	39	2	
6	0	0	0	0	510	463	0	540	39	2	
7	0	0	0	0	509	464	0	549	38	2	
8	0	0	0	0	510	464	0	544	38	2	
9	0	0	0	0	504	463	0	532	39	2	
10	0	0	0	0	505	465	0	519	38	3	
11	0	0	0	0	510	467	0	508	38	3	
12	0	0	0	0	503	469	0	504	38	3	
13	0	0	0	0	503	470	0	499	38	2	
14	0	0	0	0	504	471	0	494	39	2	
15	0	0	0	0	506	472	0	490	38	2	
0	0	0	0	0	513	472	0	487	38	2	
1	0	0	0	0	511	474	0	487	38	2	
2	0	0	0	0	502	475	0	486	38	3	
3	0	0	0	0	506	475	0	485	38	3	
4	0	0	0	0	509	475	0	484	38	2	
5	0	0	0	0	507	473	0	502	38	2	
6	0	0	0	0	510	473	0	523	39	2	
7	0	0	0	0	514	471	0	524	38	2	
8	0	0	0	0	511	470	0	513	38	2	
9	0	0	0	0	503	470	0	499	38	2	
10	0	0	0	0	512	469	0	492	38	2	
11	0	0	0	0	507	469	0	501	38	3	
12	0	0	0	0	504	470	0	522	39	3	
13	0	0	0	0	502	471	0	526	38	2	
14	0	0	0	0	507	472	0	523	39	2	
15	0	0	0	0	511	471	0	541	38	2	
0	0	0	0	0	512	470	0	543	38	2	
1	0	0	0	0	502	468	0	536	38	2	
2	0	0	0	0	498	468	0	528	38	2	
3	0	0	0	0	495	467	0	529	38	3	
4	0	0	0	0	505	467	0	524	38	3	
5	0	0	0	0	513	469	0	515	38	3	
6	0	0	0	0	511	471	0	507	39	2	
7	0	0	0	0	509	472	0	505	38	2	
8	0	0	0	0	507	472	0	501	38	2	
9	0	0	0	0	505	471	0	498	38	2	
10	0	0	0	0	506	471	0	511	38	2	
11	0	0	0	0	504	473	0	535	38	2	
12	0	0	0	0	508	475	0	562	38	3	
13	0	0	0	0	510	477	0	541	39	3	
14	0	0	0	0	507	477	0	531	39	2	
15	0	0	0	0	504	479	0	524	39	2	
0	0	0	0	0	507	479	0	522	39	2	
1	0	0	0	0	507	478	0	541	38	2	
2	0	0	0	0	510	477	0	541	38	2	
3	0	0	0	0	510	477	0	534	39	2	
4	0	0	0	0	512	478	0	529	38	3	
5	0	0	0	0	511	479	0	523	39	3	
6	0	0	0	0	506	478	0	526	39	2	
7	0	0	0	0	511	478	0	518	39	2	
8	0	0	0	0	512	478	0	513	39	2	
9	0	0	0	0	511	479	0	512	38	2	
10	0	0	0	0	506	480	0	516	38	2	
11	0	0	0	0	499	482	0	542	38	2	
12	0	0	0	0	504	483	0	551	39	3	
13	0	0	0	0	510	483	0	545	39	3	
14	0	0	0	0	507	483	0	567	39	2	
15	0	0	0	0	502	483	0	563	38	2	
0	0	0	0	0	503	482	0	558	38	2	
1	0	0	0	0	512	482	0	550	38	2	
2	0	0	0	0	508	479	0	548	38	2	
3	0	0	0	0	510	480	0	542	38	2	
4	0	0	0	0	508	479	0	533	39	3	
5	0	0	0	0	507	479	0	527	39	3	
6	0	0	0	0	508	479	0	522	39	3	
7	0	0	0	0	507	479	0	515	38	2	
8	0	0	0	0	513	480	0	517	38	2	
9	0	0	0	0	509	480	0	522	38	2	
10	0	0	0	0	504	482	0	548	38	2	
11	0	0	0	0	509	483	0	558	38	2	
12	0	0	0	0	507	483	0	553	38	3	
13	0	0	0	0	506	485	0	546	39	3	
14	0	0	0	0	511	486	0	547	39	3	
15	0	0	0	0	513	487	0	549	38	2	
0	0	0	0	0	501	487	0	544	38	2	
1	0	0	0	0	506	485	0	558	38	2	
2	0	0	0	0	512	484	0	574	38	2	
3	0	0	0	0	501	482	0	570	38	2	
4	0	0	0	0	511	479	0	561	38	2	
5	0	0	0	0	503	477	0	548	38	3	
6	0	0	0	0	508	475	0	534	39	3	
7	0	0	0	0	512	475	0	528	38	3	
8	0	0	0	0	508	476	0	520	38	2	
9	0	0	0	0	507	480	0	518	38	2	
10	0	0	0	0	506	484	0	517	38	2	
11	0	0	0	0	503	488	0	532	38	2	
12	0	0	0	0	509	491	0	548	38	2	
13	0	0	0	0	505	492	0	549	38	3	
14	0	0	0	0	502	493	0	548	39	3	
15	0	0	0	0	500	493	0	561	38	3	
0	0	0	0	0	511	493	0	566	38	2	
1	0	0	0	0	515	495	0	572	38	2	
2	0	0	0	0	504	496	0	584	38	2	
3	0	0	0	0	508	496	0	577	38	2	
4	0	0	0	0	512	497	0	564	39	2	
5	0	0	0	0	513	496	0	545	39	3	
6	0	0	0	0	504	495	0	531	39	3	
7	0	0	0	0	511	493	0	529	38	3	
8	0	0	0	0	504	493	0	541	38	2	
9	0	0	0	0	504	493	0	539	38	2	
10	0	0	0	0	508	491	0	548	38	2	
11	0	0	0	0	512	490	0	559	39	2	
12	0	0	0	0	508	488	0	553	39	2	
13	0	0	0	0	510	487	0	544	39	3	
14	0	0	0	0	501	486	0	558	39	3	
15	0	0	0	0	509	487	0	560	39	3	
0	0	0	0	0	510	488	0	563	38	3	
1	0	0	0	0	511	488	0	570	38	2	
2	0	0	0	0	506	487	0	560	38	2	
3	0	0	0	0	504	487	0	542	38	2	
4	0	0	0	0	508	487	0	524	38	2	
5	0	0	0	0	506	489	0	511	38	3	
6	0	0	0	0	506	490	0	499	39	3	
7	0	0	0	0	510	490	0	494	38	3	
8	0	0	0	0	503	491	0	486	38	3	
9	0	0	0	0	508	490	0	480	38	2	
10	0	0	0	0	511	491	0	481	38	2	
11	0	0	0	0	510	489	0	483	38	2	
12	0	0	0	0	508	489	0	486	38	2	
13	0	0	0	0	505	490	0	487	39	2	
14	0	0	0	0	513	490	0	487	39	3	
15	0	0	0	0	510	492	0	486	38	3	
0	0	0	0	0	509	491	0	479	38	3	
1	0	0	0	0	504	491	0	477	38	2	
2	0	0	0	0	508	492	0	475	38	2	
3	0	0	0	0	512	491	0	474	38	2	
4	0	0	0	0	504	492	0	479	38	2	
5	0	0	0	0	507	492	0	481	38	2	
6	0	0	0	0	504	491	0	483	39	3	
7	0	0	0	0	511	490	0	483	38	3	
8	0	0	0	0	503	490	0	480	38	3	
9	0	0	0	0	504	492	0	494	38	3	
10	0	0	0	0	499	494	0	519	38	2	
11	0	0	0	0	508	494	0	527	38	2	
12	0	0	0	0	507	494	0	522	38	2	
13	0	0	0	0	510	492	0	512	38	2	
14	0	0	0	0	513	493	0	507	39	3	
15	0	0	0	0	512	491	0	500	38	3	
0	0	0	0	0	504	491	0	492	38	3	
1	0	0	0	0	509	492	0	483	38	3	
2	0	0	0	0	505	491	0	478	38	2	
3	0	0	0	0	505	493	0	491	38	2	
4	0	0	0	0	511	495	0	482	38	2	
5	0	0	0	0	508	496	0	489	38	2	
6	0	0	0	0	508	494	0	517	39	2	
7	0	0	0	0	508	494	0	526	38	3	
8	0	0	0	0	511	495	0	535	38	3	
9	0	0	0	0	506	495	0	554	38	3	
10	0	0	0	0	508	496	0	556	38	2	
11	0	0	0	0	508	495	0	567	38	2	
12	0	0	0	0	509	496	0	566	38	2	
13	0	0	0	0	510	496	0	567	38	2	
14	0	0	0	0	507	496	0	572	39	2	
15	0	0	0	0	506	495	0	564	38	3	
0	0	0	0	0	505	493	0	570	38	3	
1	0	0	0	0	515	492	0	566	38	3	
2	0	0	0	0	512	492	0	550	38	3	
3	0	0	0	0	506	491	0	548	38	2	
4	0	0	0	0	504	491	0	519	38	2	
5	0	0	0	0	504	492	0	508	39	2	
6	0	0	0	0	508	492	0	500	39	2	
7	0	0	0	0	503	492	0	495	38	3	
8	0	0	0	0	510	491	0	488	38	3	
9	0	0	0	0	507	491	0	487	38	3	
10	0	0	0	0	511	491	0	508	38	3	
11	0	0	0	0	509	493	0	520	38	2	
12	0	0	0	0	509	494	0	519	38	2	
13	0	0	0	0	507	494	0	521	38	2	
14	0	0	0	0	502	496	0	522	39	2	
15	0	0	0	0	516	498	0	515	38	2	
0	0	0	0	0	519	500	0	542	39	3	
1	0	0	0	0	510	504	0	543	38	3	
2	0	0	0	0	505	505	0	541	38	3	
3	0	0	0	0	504	507	0	537	38	2	
4	0	0	0	0	507	509	0	521	38	2	
5	0	0	0	0	512	508	0	508	39	2	
6	0	0	0	0	509	510	0	502	39	2	
7	0	0	0	0	502	510	0	497	38	2	
8	0	0	0	0	510	509	0	495	38	3	
9	0	0	0	0	505	509	0	492	38	3	
10	0	0	0	0	507	509	0	508	38	3	
11	0	0	0	0	508	510	0	524	38	3	
12	0	0	0	0	507	511	0	527	38	2	
13	0	0	0	0	508	510	0	523	38	2	
14	0	0	0	0	502	508	0	538	39	2	
15	0	0	0	0	508	508	0	542	38	2	
0	0	0	0	0	502	512	0	528	38	3	
1	0	0	0	0	511	513	0	516	38	3	
2	0	0	0	0	510	513	0	506	38	3	
3	0	0	0	0	505	516	0	513	38	3	
4	0	0	0	0	512	518	0	495	38	2	
5	0	0	0	0	512	521	0	494	38	2	
6	0	0	0	0	508	519	0	491	39	2	
7	0	0	0	0	507	517	0	491	39	2	
8	0	0	0	0	506	516	0	490	38	2	
9	0	0	0	0	509	514	0	486	38	2	
10	0	0	0	0	509	513	0	487	38	3	
11	0	0	0	0	509	512	0	485	38	3	
12	0	0	0	0	508	512	0	490	38	2	
13	0	0	0	0	509	512	0	518	38	2	
14	0	0	0	0	507	513	0	531	39	2	
15	0	0	0	0	512	516	0	543	38	2	
0	0	0	0	0	510	515	0	556	38	2	
1	0	0	0	0	506	516	0	550	38	3	
2	0	0	0	0	511	518	0	548	38	3	
3	0	0	0	0	512	521	0	537	39	3	
4	0	0	0	0	506	524	0	526	38	3	
5	0	0	0	0	501	524	0	516	39	2	
6	0	0	0	0	502	524	0	510	39	2	
7	0	0	0	0	512	525	0	507	38	2	
8	0	0	0	0	508	526	0	499	38	2	
9	0	0	0	0	509	527	0	497	38	2	
10	0	0	0	0	508	525	0	495	38	3	
11	0	0	0	0	498	524	0	494	38	3	
12	0	0	0	0	501	521	0	492	38	3	
13	0	0	0	0	507	518	0	505	38	2	
14	0	0	0	0	510	517	0	492	39	2	
15	0	0	0	0	508	517	0	498	38	2	
0	0	0	0	0	507	518	0	526	38	2	
1	0	0	0	0	511	518	0	533	38	2	
2	0	0	0	0	507	515	0	547	38	3	
3	0	0	0	0	508	514	0	562	39	3	
4	0	0	0	0	506	512	0	555	39	3	
5	0	0	0	0	507	511	0	541	39	2	
6	0	0	0	0	509	510	0	527	39	2	
7	0	0	0	0	515	507	0	515	39	2	
8	0	0	0	0	509	504	0	520	39	2	
9	0	0	0	0	505	503	0	531	39	2	
10	0	0	0	0	512	503	0	533	38	2	
11	0	0	0	0	499	503	0	524	39	3	
12	0	0	0	0	499	500	0	514	39	3	
13	0	0	0	0	502	499	0	519	39	3	
14	0	0	0	0	514	499	0	516	39	2	
15	0	0	0	0	509	499	0	515	39	2	
0	0	0	0	0	499	498	0	533	39	2	
1	0	0	0	0	512	496	0	546	39	2	
2	0	0	0	0	504	494	0	540	38	2	
3	0	0	0	0	508	491	0	530	39	3	
4	0	0	0	0	501	491	0	537	38	3	
5	0	0	0	0	510	489	0	511	38	3	
6	0	0	0	0	511	487	0	503	39	2	
7	0	0	0	0	508	484	0	501	38	2	
8	0	0	0	0	499	482	0	495	38	2	
9	0	0	0	0	508	482	0	498	38	2	
10	0	0	0	0	511	481	0	520	38	2	
11	0	0	0	0	512	481	0	531	38	2	
12	0	0	0	0	510	482	0	528	38	3	
13	0	0	0	0	503	480	0	521	38	3	
14	0	0	0	0	508	478	0	514	39	2	
15	0	0	0	0	507	478	0	509	38	2	
0	0	0	0	0	506	477	0	521	38	2	
1	0	0	0	0	506	476	0	536	38	2	
2	0	0	0	0	504	475	0	536	38	2	
3	0	0	0	0	498	473	0	529	38	2	
4	0	0	0	0	510	474	0	523	38	3	
5	0	0	0	0	513	473	0	514	38	3	
6	0	0	0	0	505	476	0	510	39	2	
7	0	0	0	0	508	479	0	515	38	2	
8	0	0	0	0	513	480	0	507	38	2	
9	0	0	0	0	511	480	0	504	38	2	
10	0	0	0	0	508	480	0	521	38	2	
11	0	0	0	0	507	480	0	538	38	2	
12	0	0	0	0	507	480	0	541	39	3	
13	0	0	0	0	512	479	0	542	39	3	
14	0	0	0	0	507	479	0	556	39	2	
15	0	0	0	0	510	479	0	559	39	2	
0	0	0	0	0	512	480	0	551	39	2	
1	0	0	0	0	509	480	0	540	39	2	
2	0	0	0	0	502	480	0	529	38	2	
3	0	0	0	0	513	480	0	521	39	2	
4	0	0	0	0	508	476	0	513	39	3	
5	0	0	0	0	509	477	0	511	39	3	
6	0	0	0	0	500	479	0	506	39	3	
7	0	0	0	0	508	481	0	515	39	2	
8	0	0	0	0	504	484	0	505	39	2	
9	0	0	0	0	515	483	0	499	39	2	
10	0	0	0	0	508	483	0	500	38	2	
11	0	0	0	0	507	482	0	496	39	2	
12	0	0	0	0	508	482	0	499	38	3	
13	0	0	0	0	507	483	0	523	38	3	
14	0	0	0	0	512	483	0	538	39	3	
15	0	0	0	0	508	486	0	548	38	2	
0	0	0	0	0	507	487	0	559	38	2	
1	0	0	0	0	511	488	0	553	38	2	
2	0	0	0	0	510	489	0	551	38	2	
3	0	0	0	0	513	490	0	550	38	2	
4	0	0	0	0	506	491	0	542	38	2	
5	0	0	0	0	505	489	0	529	38	3	
6	0	0	0	0	507	487	0	518	39	3	
7	0	0	0	0	508	487	0	514	38	3	
8	0	0	0	0	513	487	0	504	38	2	
9	0	0	0	0	508	487	0	502	38	2	
10	0	0	0	0	506	485	0	498	38	2	
11	0	0	0	0	499	483	0	498	38	2	
12	0	0	0	0	512	481	0	496	38	2	
13	0	0	0	0	511	479	0	492	38	3	
14	0	0	0	0	505	480	0	494	39	3	
15	0	0	0	0	504	482	0	493	39	3	
0	0	0	0	0	505	483	0	494	38	2	
1	0	0	0	0	512	484	0	492	38	2	
2	0	0	0	0	512	484	0	489	38	2	
3	0	0	0	0	511	484	0	491	38	2	
4	0	0	0	0	510	483	0	488	39	2	
5	0	0	0	0	499	483	0	488	39	3	
6	0	0	0	0	510	481	0	486	39	3	
7	0	0	0	0	505	476	0	485	39	3	
8	0	0	0	0	505	476	0	484	38	3	
9	0	0	0	0	502	474	0	487	39	2	
10	0	0	0	0	504	473	0	516	38	2	
11	0	0	0	0	509	474	0	526	39	2	
12	0	0	0	0	507	474	0	543	39	2	
13	0	0	0	0	509	473	0	556	39	3	
14	0	0	0	0	508	471	0	559	39	3	
15	0	0	0	0	503	470	0	569	39	3	
0	0	0	0	0	512	472	0	560	39	3	
1	0	0	0	0	508	473	0	564	39	2	
2	0	0	0	0	504	474	0	566	38	2	
3	0	0	0	0	516	474	0	555	39	2	
4	0	0	0	0	509	475	0	539	39	2	
5	0	0	0	0	502	478	0	523	39	3	
6	0	0	0	0	514	483	0	508	39	3	
7	0	0	0	0	509	491	0	501	38	3	
8	0	0	0	0	507	497	0	495	39	3	
9	0	0	0	0	497	504	0	492	39	2	
10	0	0	0	0	508	513	0	487	38	2	
11	0	0	0	0	507	523	0	507	38	2	
12	0	0	0	0	513	537	0	518	38	2	
13	0	0	0	0	509	551	0	518	39	2	
14	0	0	0	0	509	566	0	517	39	3	
15	0	0	0	0	505	583	0	528	38	3	
0	0	0	0	0	508	602	0	531	38	3	
1	0	0	0	0	495	625	0	521	38	3	
2	0	0	0	0	508	647	0	507	38	2	
3	0	0	0	0	511	670	0	498	38	2	
4	0	0	0	0	507	694	0	487	39	2	
5	0	0	0	0	512	717	0	498	38	2	
6	0	0	0	0	508	744	0	494	39	3	
7	0	0	0	0	504	768	0	492	38	3	
8	0	0	0	0	511	791	0	514	38	3	
9	0	0	0	0	503	809	0	517	38	3	
10	0	0	0	0	512	819	0	510	38	2	
11	0	0	0	0	510	826	0	502	38	2	
12	0	0	0	0	503	822	0	493	39	2	
13	0	0	0	0	503	812	0	486	39	2	
14	0	0	0	0	509	797	0	480	39	3	
15	0	0	0	0	505	777	0	476	39	3	
0	0	0	0	0	504	755	0	474	38	3	
1	0	0	0	0	508	724	0	476	38	3	
2	0	0	0	0	508	693	0	501	38	2	
3	0	0	0	0	510	663	0	507	39	2	
4	0	0	0	0	511	636	0	503	38	2	
5	0	0	0	0	512	611	0	496	39	2	
6	0	0	0	0	505	584	0	490	39	2	
7	0	0	0	0	504	559	0	489	38	3	
8	0	0	0	0	505	535	0	503	38	3	
9	0	0	0	0	509	512	0	519	38	3	
10	0	0	0	0	508	494	0	508	38	3	
11	0	0	0	0	508	476	0	499	39	2	
12	0	0	0	0	505	460	0	498	38	2	
13	0	0	0	0	503	449	0	487	39	2	
14	0	0	0	0	504	438	0	480	39	2	
15	0	0	0	0	505	429	0	486	38	3	
0	0	0	0	0	505	420	0	472	38	3	
1	0	0	0	0	508	411	0	471	38	3	
2	0	0	0	0	512	402	0	491	38	3	
3	0	0	0	0	505	397	0	504	38	2	
4	0	0	0	0	511	394	0	502	38	2	
5	0	0	0	0	513	388	0	500	39	2	
6	0	0	0	0	505	382	0	504	39	2	
7	0	0	0	0	507	376	0	494	39	2	
8	0	0	0	0	507	370	0	501	38	3	
9	0	0	0	0	511	367	0	516	38	3	
10	0	0	0	0	504	365	0	512	38	3	
11	0	0	0	0	504	363	0	503	39	2	
12	0	0	0	0	504	362	0	494	38	2	
13	0	0	0	0	508	363	0	479	38	2	
14	0	0	0	0	505	366	0	476	39	2	
15	0	0	0	0	510	368	0	470	39	2	
0	0	0	0	0	511	371	0	471	39	3	
1	0	0	0	0	507	375	0	465	39	3	
2	0	0	0	0	512	380	0	479	38	3	
3	0	0	0	0	512	386	0	497	38	3	
4	0	0	0	0	503	388	0	497	39	2	
5	0	0	0	0	502	390	0	496	39	2	
6	0	0	0	0	509	396	0	512	39	2	
7	0	0	0	0	515	403	0	513	39	2	
8	0	0	0	0	504	410	0	502	39	3	
9	0	0	0	0	508	415	0	503	38	3	
10	0	0	0	0	507	419	0	483	38	3	
11	0	0	0	0	503	424	0	475	38	3	
12	0	0	0	0	512	429	0	470	38	2	
13	0	0	0	0	505	435	0	468	39	2	
14	0	0	0	0	511	439	0	465	39	2	
15	0	0	0	0	505	443	0	467	38	2	
0	0	0	0	0	507	446	0	464	38	2	
1	0	0	0	0	514	448	0	461	38	3	
2	0	0	0	0	506	450	0	463	38	3	
3	0	0	0	0	507	451	0	460	38	3	
4	0	0	0	0	507	453	0	467	38	2	
5	0	0	0	0	509	453	0	489	38	2	
6	0	0	0	0	511	452	0	505	39	2	
7	0	0	0	0	501	454	0	517	38	2	
8	0	0	0	0	508	457	0	529	38	2	
9	0	0	0	0	503	462	0	527	38	3	
10	0	0	0	0	515	466	0	522	38	3	
11	0	0	0	0	509	472	0	509	38	3	
12	0	0	0	0	504	476	0	498	38	3	
13	0	0	0	0	505	477	0	489	38	2	
14	0	0	0	0	508	478	0	484	39	2	
15	0	0	0	0	506	479	0	478	38	2	
0	0	0	0	0	510	479	0	475	38	2	
1	0	0	0	0	511	482	0	472	38	3	
2	0	0	0	0	505	484	0	468	38	3	
3	0	0	0	0	508	485	0	470	38	3	
4	0	0	0	0	510	487	0	469	38	3	
5	0	0	0	0	512	487	0	465	38	2	
6	0	0	0	0	505	490	0	468	39	2	
7	0	0	0	0	511	490	0	476	38	2	
8	0	0	0	0	503	492	0	500	38	2	
9	0	0	0	0	504	492	0	510	38	2	
10	0	0	0	0	508	492	0	526	38	3	
11	0	0	0	0	505	494	0	536	38	3	
12	0	0	0	0	513	495	0	529	38	3	
13	0	0	0	0	508	495	0	516	38	2	
14	0	0	0	0	515	496	0	504	39	2	
15	0	0	0	0	505	496	0	492	38	2	
0	0	0	0	0	505	497	0	496	38	2	
1	0	0	0	0	504	497	0	512	38	2	
2	0	0	0	0	496	497	0	510	38	2	
3	0	0	0	0	501	499	0	504	38	3	
4	0	0	0	0	513	499	0	507	38	3	
5	0	0	0	0	510	501	0	502	38	3	
6	0	0	0	0	510	502	0	491	39	2	
7	0	0	0	0	504	502	0	484	38	2	
8	0	0	0	0	510	502	0	481	38	2	
9	0	0	0	0	502	502	0	496	38	2	
10	0	0	0	0	505	503	0	516	38	3	
11	0	0	0	0	508	503	0	517	38	3	
12	0	0	0	0	504	504	0	511	38	3	
13	0	0	0	0	511	505	0	499	38	3	
14	0	0	0	0	515	505	0	489	39	2	
15	0	0	0	0	502	506	0	486	38	2	
0	0	0	0	0	509	505	0	478	38	2	
1	0	0	0	0	510	506	0	481	38	2	
2	0	0	0	0	508	505	0	500	38	2	
3	0	0	0	0	512	505	0	511	38	3	
4	0	0	0	0	509	506	0	522	38	3	
5	0	0	0	0	504	507	0	536	39	3	
6	0	0	0	0	506	507	0	535	39	2	
7	0	0	0	0	505	506	0	545	38	2	
8	0	0	0	0	506	506	0	546	38	2	
9	0	0	0	0	514	507	0	531	38	2	
10	0	0	0	0	510	507	0	534	38	2	
11	0	0	0	0	507	508	0	505	38	2	
12	0	0	0	0	504	508	0	495	38	3	
13	0	0	0	0	512	507	0	502	38	3	
14	0	0	0	0	509	508	0	485	39	3	
15	0	0	0	0	508	509	0	478	38	2	
0	0	0	0	0	506	510	0	492	38	2	
1	0	0	0	0	502	509	0	503	38	2	
2	0	0	0	0	517	510	0	515	38	2	
3	0	0	0	0	503	512	0	514	38	2	
4	0	0	0	0	509	513	0	514	38	3	
5	0	0	0	0	499	515	0	516	38	3	
6	0	0	0	0	508	517	0	519	39	3	
7	0	0	0	0	513	516	0	498	38	2	
8	0	0	0	0	514	516	0	493	38	2	
9	0	0	0	0	497	515	0	495	38	2	
10	0	0	0	0	508	516	0	516	38	2	
11	0	0	0	0	508	519	0	520	38	2	
12	0	0	0	0	511	517	0	515	38	3	
13	0	0	0	0	502	519	0	506	39	3	
14	0	0	0	0	503	518	0	496	39	3	
15	0	0	0	0	509	517	0	491	38	2	
0	0	0	0	0	507	516	0	487	39	2	
1	0	0	0	0	506	517	0	500	39	2	
2	0	0	0	0	509	518	0	521	38	2	
3	0	0	0	0	515	518	0	519	39	2	
4	0	0	0	0	497	517	0	510	39	2	
5	0	0	0	0	515	516	0	502	39	3	
6	0	0	0	0	514	515	0	490	39	3	
7	0	0	0	0	510	515	0	487	38	2	
8	0	0	0	0	510	513	0	487	38	2	
9	0	0	0	0	508	515	0	506	39	2	
10	0	0	0	0	510	517	0	510	38	2	
11	0	0	0	0	498	518	0	504	38	2	
12	0	0	0	0	510	522	0	500	38	2	
13	0	0	0	0	499	523	0	494	39	3	
14	0	0	0	0	505	525	0	490	39	3	
15	0	0	0	0	511	525	0	499	39	3	
0	0	0	0	0	512	523	0	483	39	2	
1	0	0	0	0	506	524	0	481	38	2	
2	0	0	0	0	510	526	0	487	38	2	
3	0	0	0	0	506	527	0	511	39	2	
4	0	0	0	0	504	528	0	520	39	2	
5	0	0	0	0	505	528	0	535	39	3	
6	0	0	0	0	505	528	0	548	39	3	
7	0	0	0	0	510	528	0	540	39	3	
8	0	0	0	0	508	528	0	523	39	2	
9	0	0	0	0	502	528	0	509	38	2	
10	0	0	0	0	515	527	0	495	38	2	
11	0	0	0	0	510	527	0	488	38	2	
12	0	0	0	0	501	526	0	481	38	2	
13	0	0	0	0	500	526	0	479	38	3	
14	0	0	0	0	511	526	0	474	39	3	
15	0	0	0	0	515	528	0	471	38	3	
0	0	0	0	0	509	532	0	472	38	3	
1	0	0	0	0	511	532	0	468	38	2	
2	0	0	0	0	506	533	0	470	38	2	
3	0	0	0	0	508	534	0	470	39	2	
4	0	0	0	0	507	534	0	488	38	2	
5	0	0	0	0	505	537	0	510	39	3	
6	0	0	0	0	506	537	0	511	39	3	
7	0	0	0	0	503	537	0	507	38	3	
8	0	0	0	0	504	537	0	495	39	3	
9	0	0	0	0	505	538	0	481	38	2	
10	0	0	0	0	510	539	0	478	38	2	
11	0	0	0	0	509	539	0	474	38	2	
12	0	0	0	0	508	540	0	475	38	2	
13	0	0	0	0	504	542	0	472	38	2	
14	0	0	0	0	508	543	0	471	39	3	
15	0	0	0	0	506	548	0	473	38	3	
0	0	0	0	0	500	551	0	468	38	3	
1	0	0	0	0	511	551	0	466	38	2	
2	0	0	0	0	507	550	0	464	38	2	
3	0	0	0	0	513	548	0	464	38	2	
4	0	0	0	0	504	548	0	468	38	2	
5	0	0	0	0	511	548	0	471	39	2	
6	0	0	0	0	509	549	0	476	39	3	
7	0	0	0	0	508	549	0	476	38	3	
8	0	0	0	0	499	550	0	495	38	3	
9	0	0	0	0	506	551	0	511	39	3	
10	0	0	0	0	504	552	0	519	38	2	
11	0	0	0	0	518	553	0	541	39	2	
12	0	0	0	0	508	555	0	547	39	2	
13	0	0	0	0	509	557	0	556	39	2	
14	0	0	0	0	511	558	0	558	39	3	
15	0	0	0	0	510	558	0	552	39	3	
0	0	0	0	0	510	559	0	559	38	3	
1	0	0	0	0	508	560	0	556	39	3	
2	0	0	0	0	509	561	0	558	38	2	
3	0	0	0	0	512	563	0	556	38	2	
4	0	0	0	0	508	564	0	541	39	2	
5	0	0	0	0	502	566	0	522	39	2	
6	0	0	0	0	511	566	0	505	39	2	
7	0	0	0	0	507	567	0	494	39	3	
8	0	0	0	0	505	569	0	487	38	3	
9	0	0	0	0	505	571	0	478	38	3	
10	0	0	0	0	508	572	0	477	38	2	
11	0	0	0	0	499	572	0	472	38	2	
12	0	0	0	0	505	572	0	469	38	2	
13	0	0	0	0	507	573	0	483	38	2	
14	0	0	0	0	507	574	0	504	39	2	
15	0	0	0	0	510	575	0	510	38	3	
0	0	0	0	0	505	574	0	524	38	3	
1	0	0	0	0	511	574	0	531	38	3	
2	0	0	0	0	504	573	0	531	38	3	
3	0	0	0	0	509	573	0	524	39	2	
4	0	0	0	0	506	575	0	511	38	2	
5	0	0	0	0	511	575	0	499	39	2	
6	0	0	0	0	519	577	0	488	39	2	
7	0	0	0	0	504	582	0	481	38	3	
8	0	0	0	0	507	583	0	472	38	3	
9	0	0	0	0	507	588	0	473	38	3	
10	0	0	0	0	503	589	0	466	38	3	
11	0	0	0	0	508	591	0	480	38	2	
12	0	0	0	0	501	593	0	497	38	2	
13	0	0	0	0	509	593	0	499	39	2	
14	0	0	0	0	507	592	0	497	39	2	
15	0	0	0	0	509	591	0	513	38	2	
0	0	0	0	0	513	591	0	517	39	3	
1	0	0	0	0	502	593	0	508	38	3	
2	0	0	0	0	506	593	0	497	38	3	
3	0	0	0	0	508	591	0	488	39	2	
4	0	0	0	0	507	591	0	481	39	2	
5	0	0	0	0	509	591	0	474	39	2	
6	0	0	0	0	505	591	0	474	39	2	
7	0	0	0	0	513	590	0	470	39	2	
8	0	0	0	0	509	590	0	472	38	3	
9	0	0	0	0	507	587	0	491	38	3	
10	0	0	0	0	512	585	0	503	38	3	
11	0	0	0	0	510	586	0	502	39	3	
12	0	0	0	0	508	583	0	503	38	2	
13	0	0	0	0	504	583	0	505	39	2	
14	0	0	0	0	513	582	0	496	39	2	
15	0	0	0	0	502	580	0	508	38	2	
0	0	0	0	0	496	580	0	516	38	3	
1	0	0	0	0	507	580	0	512	39	3	
2	0	0	0	0	504	581	0	506	38	3	
3	0	0	0	0	514	581	0	496	38	3	
4	0	0	0	0	512	579	0	484	38	2	
5	0	0	0	0	504	579	0	481	39	2	
6	0	0	0	0	510	575	0	473	39	2	
7	0	0	0	0	501	573	0	473	38	2	
8	0	0	0	0	510	571	0	471	39	2	
9	0	0	0	0	509	569	0	483	38	3	
10	0	0	0	0	514	566	0	504	38	3	
11	0	0	0	0	503	561	0	508	38	3	
12	0	0	0	0	507	557	0	501	38	2	
13	0	0	0	0	511	554	0	493	39	2	
14	0	0	0	0	508	552	0	488	39	2	
15	0	0	0	0	503	553	0	489	38	2	
0	0	0	0	0	503	551	0	499	38	2	
1	0	0	0	0	504	549	0	498	38	3	
2	0	0	0	0	503	546	0	486	38	3	
3	0	0	0	0	510	542	0	476	38	3	
4	0	0	0	0	511	539	0	476	38	3	
5	0	0	0	0	515	533	0	467	38	2	
6	0	0	0	0	501	530	0	467	39	2	
7	0	0	0	0	511	529	0	467	39	2	
8	0	0	0	0	511	526	0	460	38	2	
9	0	0	0	0	507	521	0	474	38	2	
10	0	0	0	0	503	517	0	502	38	3	
11	0	0	0	0	512	514	0	507	38	3	
12	0	0	0	0	512	512	0	503	39	3	
13	0	0	0	0	502	508	0	507	39	2	
14	0	0	0	0	511	504	0	502	39	2	
15	0	0	0	0	511	500	0	497	38	2	
0	0	0	0	0	504	497	0	512	39	2	
1	0	0	0	0	504	493	0	514	39	2	
2	0	0	0	0	513	487	0	503	38	3	
3	0	0	0	0	507	486	0	493	38	3	
4	0	0	0	0	510	481	0	484	38	3	
5	0	0	0	0	509	478	0	476	38	2	
6	0	0	0	0	502	476	0	470	39	2	
7	0	0	0	0	510	474	0	465	38	2	
8	0	0	0	0	504	473	0	462	38	2	
9	0	0	0	0	505	471	0	464	38	2	
10	0	0	0	0	504	469	0	489	38	3	
11	0	0	0	0	511	467	0	497	39	3	
12	0	0	0	0	509	466	0	492	38	3	
13	0	0	0	0	507	466	0	487	38	3	
14	0	0	0	0	504	462	0	476	39	2	
15	0	0	0	0	508	459	0	475	38	2	
0	0	0	0	0	511	456	0	491	38	2	
1	0	0	0	0	513	455	0	497	38	2	
2	0	0	0	0	509	455	0	506	38	2	
3	0	0	0	0	499	455	0	524	38	3	
4	0	0	0	0	507	451	0	521	38	3	
5	0	0	0	0	511	449	0	510	38	3	
6	0	0	0	0	501	447	0	515	39	2	
7	0	0	0	0	508	444	0	516	38	2	
8	0	0	0	0	510	441	0	504	38	2	
9	0	0	0	0	508	439	0	496	38	2	
10	0	0	0	0	507	438	0	485	38	2	
11	0	0	0	0	503	436	0	491	38	3	
12	0	0	0	0	508	436	0	490	38	3	
13	0	0	0	0	504	433	0	478	39	3	
14	0	0	0	0	500	431	0	475	39	2	
15	0	0	0	0	511	431	0	470	38	2	
0	0	0	0	0	506	431	0	463	38	2	
1	0	0	0	0	511	433	0	466	38	2	
2	0	0	0	0	507	433	0	472	38	2	
3	0	0	0	0	500	433	0	499	39	2	
4	0	0	0	0	505	432	0	511	39	3	
5	0	0	0	0	509	430	0	505	39	3	
6	0	0	0	0	504	430	0	511	39	2	
7	0	0	0	0	510	428	0	522	38	2	
8	0	0	0	0	500	428	0	516	39	2	
9	0	0	0	0	508	428	0	506	38	2	
10	0	0	0	0	511	427	0	494	38	2	
11	0	0	0	0	512	428	0	488	38	2	
12	0	0	0	0	512	428	0	482	38	3	
13	0	0	0	0	508	428	0	480	39	3	
14	0	0	0	0	506	430	0	475	39	2	
15	0	0	0	0	515	430	0	483	38	2	
0	0	0	0	0	511	433	0	480	38	2	
1	0	0	0	0	499	437	0	497	38	2	
2	0	0	0	0	502	439	0	503	38	2	
3	0	0	0	0	507	441	0	496	38	2	
4	0	0	0	0	512	441	0	489	38	3	
5	0	0	0	0	504	442	0	487	38	3	
6	0	0	0	0	502	442	0	481	39	3	
7	0	0	0	0	507	442	0	481	38	2	
8	0	0	0	0	503	443	0	477	38	2	
9	0	0	0	0	514	443	0	473	38	2	
10	0	0	0	0	516	442	0	486	38	2	
11	0	0	0	0	508	441	0	510	38	2	
12	0	0	0	0	500	440	0	526	38	2	
13	0	0	0	0	505	441	0	513	39	3	
14	0	0	0	0	512	443	0	523	39	3	
15	0	0	0	0	506	443	0	531	38	3	
0	0	0	0	0	509	442	0	525	38	2	
1	0	0	0	0	511	443	0	522	38	2	
2	0	0	0	0	507	443	0	512	38	2	
3	0	0	0	0	502	442	0	503	38	2	
4	0	0	0	0	505	442	0	497	38	2	
5	0	0	0	0	509	441	0	491	38	3	
6	0	0	0	0	508	443	0	489	39	3	
7	0	0	0	0	505	445	0	486	38	2	
8	0	0	0	0	504	446	0	481	38	2	
9	0	0	0	0	508	448	0	486	38	2	
10	0	0	0	0	514	449	0	480	38	2	
11	0	0	0	0	507	451	0	482	38	2	
12	0	0	0	0	505	451	0	482	38	2	
13	0	0	0	0	508	451	0	479	38	3	
14	0	0	0	0	507	450	0	494	39	3	
15	0	0	0	0	506	451	0	521	38	3	
0	0	0	0	0	507	451	0	530	38	2	
1	0	0	0	0	508	450	0	549	38	2	
2	0	0	0	0	508	451	0	556	38	2	
3	0	0	0	0	508	453	0	547	38	2	
4	0	0	0	0	506	453	0	534	38	2	
5	0	0	0	0	511	453	0	523	38	3	
6	0	0	0	0	507	454	0	514	39	3	
7	0	0	0	0	510	455	0	507	38	3	
8	0	0	0	0	509	457	0	515	38	2	
9	0	0	0	0	508	457	0	531	38	2	
10	0	0	0	0	505	457	0	532	38	2	
11	0	0	0	0	507	458	0	528	38	2	
12	0	0	0	0	504	458	0	529	38	2	
13	0	0	0	0	504	460	0	524	39	3	
14	0	0	0	0	508	460	0	523	39	3	
15	0	0	0	0	507	461	0	522	38	3	
0	0	0	0	0	507	462	0	515	38	3	
1	0	0	0	0	511	462	0	508	38	2	
2	0	0	0	0	506	463	0	520	38	2	
3	0	0	0	0	506	463	0	541	39	2	
4	0	0	0	0	510	464	0	545	38	2	
5	0	0	0	0	509	463	0	541	38	2	
6	0	0	0	0	518	463	0	529	39	3	
7	0	0	0	0	511	464	0	520	38	3	
8	0	0	0	0	497	464	0	513	38	3	
9	0	0	0	0	511	465	0	508	38	2	
10	0	0	0	0	507	464	0	525	38	2	
11	0	0	0	0	510	464	0	536	38	2	
12	0	0	0	0	512	466	0	529	38	2	
13	0	0	0	0	512	467	0	519	38	2	
14	0	0	0	0	504	467	0	513	39	3	
15	0	0	0	0	504	468	0	507	38	3	
0	0	0	0	0	502	469	0	519	38	3	
1	0	0	0	0	506	470	0	531	38	2	
2	0	0	0	0	511	471	0	530	38	2	
3	0	0	0	0	497	471	0	523	38	2	
4	0	0	0	0	504	471	0	516	38	2	
5	0	0	0	0	514	470	0	507	38	2	
6	0	0	0	0	506	471	0	503	39	3	
7	0	0	0	0	503	471	0	499	38	3	
8	0	0	0	0	513	470	0	505	38	3	
9	0	0	0	0	508	470	0	494	38	2	
10	0	0	0	0	515	470	0	508	38	2	
11	0	0	0	0	511	471	0	528	38	2	
12	0	0	0	0	509	469	0	529	38	2	
13	0	0	0	0	512	468	0	527	38	2	
14	0	0	0	0	508	470	0	544	39	2	
15	0	0	0	0	508	472	0	544	38	3	
0	0	0	0	0	504	477	0	545	38	3	
1	0	0	0	0	505	480	0	541	38	3	
2	0	0	0	0	500	480	0	531	38	2	
3	0	0	0	0	507	481	0	519	38	2	
4	0	0	0	0	506	480	0	510	38	2	
5	0	0	0	0	505	482	0	505	38	2	
6	0	0	0	0	511	483	0	498	39	2	
7	0	0	0	0	504	484	0	496	38	3	
8	0	0	0	0	504	486	0	496	38	3	
9	0	0	0	0	509	484	0	491	38	3	
10	0	0	0	0	512	482	0	493	38	3	
11	0	0	0	0	515	482	0	489	38	2	
12	0	0	0	0	513	483	0	492	38	2	
13	0	0	0	0	508	484	0	491	38	2	
14	0	0	0	0	501	484	0	489	39	2	
15	0	0	0	0	510	484	0	489	38	3	
0	0	0	0	0	507	481	0	484	38	3	
1	0	0	0	0	507	480	0	484	38	3	
2	0	0	0	0	509	478	0	485	38	3	
3	0	0	0	0	514	476	0	485	38	2	
4	0	0	0	0	509	476	0	488	38	2	
5	0	0	0	0	507	476	0	487	38	2	
6	0	0	0	0	506	476	0	490	39	2	
7	0	0	0	0	500	475	0	489	38	2	
8	0	0	0	0	515	474	0	484	38	3	
9	0	0	0	0	507	475	0	483	38	3	
10	0	0	0	0	510	476	0	480	38	3	
11	0	0	0	0	509	477	0	486	38	2	
12	0	0	0	0	506	481	0	482	38	2	
13	0	0	0	0	510	483	0	480	38	2	
14	0	0	0	0	507	486	0	482	39	2	
15	0	0	0	0	506	487	0	488	38	2	
0	0	0	0	0	504	487	0	512	38	3	
1	0	0	0	0	500	489	0	524	38	3	
2	0	0	0	0	511	489	0	541	38	3	
3	0	0	0	0	510	488	0	552	38	3	
4	0	0	0	0	515	487	0	551	38	2	
5	0	0	0	0	504	488	0	566	38	2	
6	0	0	0	0	512	488	0	565	39	2	
7	0	0	0	0	509	488	0	568	38	2	
8	0	0	0	0	507	488	0	566	38	3	
9	0	0	0	0	513	487	0	555	38	3	
10	0	0	0	0	510	486	0	564	38	3	
11	0	0	0	0	504	486	0	554	38	3	
12	0	0	0	0	507	486	0	536	38	2	
13	0	0	0	0	500	487	0	521	39	2	
14	0	0	0	0	502	486	0	507	39	2	
15	0	0	0	0	510	484	0	499	38	2	
0	0	0	0	0	507	484	0	491	38	3	
1	0	0	0	0	509	483	0	484	38	3	
2	0	0	0	0	510	481	0	483	38	3	
3	0	0	0	0	512	480	0	487	38	3	
4	0	0	0	0	505	480	0	514	38	2	
5	0	0	0	0	504	481	0	526	39	2	
6	0	0	0	0	508	481	0	538	39	2	
7	0	0	0	0	505	483	0	545	38	2	
8	0	0	0	0	506	482	0	531	38	2	
9	0	0	0	0	508	483	0	521	38	3	
10	0	0	0	0	508	482	0	517	38	3	
11	0	0	0	0	506	482	0	507	38	3	
12	0	0	0	0	509	482	0	505	38	3	
13	0	0	0	0	513	481	0	491	38	2	
14	0	0	0	0	503	480	0	486	39	2	
15	0	0	0	0	498	480	0	483	38	2	
0	0	0	0	0	507	479	0	478	38	2	
1	0	0	0	0	508	479	0	480	38	3	
2	0	0	0	0	504	479	0	476	38	3	
3	0	0	0	0	512	479	0	481	38	3	
4	0	0	0	0	503	479	0	476	38	3	
5	0	0	0	0	513	479	0	472	38	2	
6	0	0	0	0	511	480	0	487	39	2	
7	0	0	0	0	508	480	0	509	38	2	
8	0	0	0	0	511	480	0	517	38	2	
9	0	0	0	0	503	480	0	532	38	2	
10	0	0	0	0	509	478	0	540	38	3	
11	0	0	0	0	507	479	0	531	38	3	
12	0	0	0	0	507	479	0	519	38	3	
13	0	0	0	0	508	479	0	510	38	2	
14	0	0	0	0	505	481	0	498	39	2	
15	0	0	0	0	508	481	0	489	38	2	
0	0	0	0	0	506	482	0	496	38	2	
1	0	0	0	0	504	483	0	508	38	2	
2	0	0	0	0	503	483	0	510	38	3	
3	0	0	0	0	506	482	0	503	38	3	
4	0	0	0	0	511	481	0	494	38	3	
5	0	0	0	0	502	484	0	490	38	3	
6	0	0	0	0	509	483	0	483	39	2	
7	0	0	0	0	508	483	0	481	38	2	
8	0	0	0	0	510	483	0	478	38	2	
9	0	0	0	0	507	481	0	474	38	2	
10	0	0	0	0	504	480	0	487	38	3	
11	0	0	0	0	505	480	0	512	38	3	
12	0	0	0	0	502	480	0	523	38	3	
13	0	0	0	0	503	480	0	515	39	3	
14	0	0	0	0	512	480	0	525	39	2	
15	0	0	0	0	515	481	0	529	38	2	
0	0	0	0	0	507	480	0	524	38	2	
1	0	0	0	0	510	478	0	521	38	2	
2	0	0	0	0	510	475	0	511	38	2	
3	0	0	0	0	508	475	0	502	38	3	
4	0	0	0	0	505	475	0	493	38	3	
5	0	0	0	0	501	473	0	485	38	3	
6	0	0	0	0	505	474	0	484	39	2	
7	0	0	0	0	506	476	0	482	38	2	
8	0	0	0	0	510	477	0	478	38	2	
9	0	0	0	0	513	479	0	478	38	2	
10	0	0	0	0	508	481	0	478	38	2	
11	0	0	0	0	510	484	0	482	38	3	
12	0	0	0	0	504	486	0	505	38	3	
13	0	0	0	0	509	485	0	521	39	3	
14	0	0	0	0	507	485	0	535	39	2	
15	0	0	0	0	508	484	0	547	38	2	
0	0	0	0	0	505	484	0	538	38	2	
1	0	0	0	0	503	483	0	528	39	2	
2	0	0	0	0	506	482	0	509	38	2	
3	0	0	0	0	516	483	0	501	39	3	
4	0	0	0	0	508	481	0	492	38	3	
5	0	0	0	0	505	480	0	490	38	3	
6	0	0	0	0	507	481	0	486	39	3	
7	0	0	0	0	513	483	0	483	38	2	
8	0	0	0	0	505	485	0	494	38	2	
9	0	0	0	0	504	486	0	511	38	2	
10	0	0	0	0	504	486	0	519	38	2	
11	0	0	0	0	509	487	0	514	38	2	
12	0	0	0	0	508	489	0	507	38	3	
13	0	0	0	0	502	493	0	513	38	3	
14	0	0	0	0	504	494	0	512	39	3	
15	0	0	0	0	504	496	0	513	38	2	
0	0	0	0	0	511	496	0	508	38	2	
1	0	0	0	0	503	496	0	501	38	2	
2	0	0	0	0	504	494	0	512	38	2	
3	0	0	0	0	510	494	0	534	38	2	
4	0	0	0	0	511	494	0	540	38	2	
5	0	0	0	0	508	496	0	534	39	3	
6	0	0	0	0	510	496	0	525	39	3	
7	0	0	0	0	510	497	0	515	38	2	
8	0	0	0	0	504	497	0	507	39	2	
9	0	0	0	0	510	498	0	505	38	2	
10	0	0	0	0	508	497	0	523	38	2	
11	0	0	0	0	514	498	0	534	38	2	
12	0	0	0	0	505	499	0	527	38	2	
13	0	0	0	0	500	500	0	519	39	3	
14	0	0	0	0	507	499	0	509	39	3	
15	0	0	0	0	510	498	0	503	39	2	
0	0	0	0	0	504	499	0	513	38	2	
1	0	0	0	0	508	501	0	528	39	2	
2	0	0	0	0	509	500	0	527	38	2	
3	0	0	0	0	507	499	0	518	38	2	
4	0	0	0	0	507	499	0	510	39	2	
5	0	0	0	0	505	498	0	499	38	3	
6	0	0	0	0	504	497	0	497	39	3	
7	0	0	0	0	506	495	0	493	39	3	
8	0	0	0	0	505	493	0	493	38	2	
9	0	0	0	0	512	492	0	487	38	2	
10	0	0	0	0	508	491	0	504	38	2	
11	0	0	0	0	512	491	0	523	39	2	
12	0	0	0	0	512	490	0	527	39	2	
13	0	0	0	0	510	488	0	525	39	3	
14	0	0	0	0	503	487	0	541	39	3	
15	0	0	0	0	509	487	0	543	38	3	
0	0	0	0	0	504	488	0	542	39	2	
1	0	0	0	0	499	488	0	537	38	2	
2	0	0	0	0	508	487	0	529	38	2	
3	0	0	0	0	507	487	0	524	39	2	
4	0	0	0	0	511	486	0	513	38	2	
5	0	0	0	0	510	488	0	509	39	3	
6	0	0	0	0	509	488	0	505	39	3	
7	0	0	0	0	511	489	0	502	38	3	
8	0	0	0	0	506	489	0	501	38	3	
9	0	0	0	0	510	490	0	496	38	2	
10	0	0	0	0	502	492	0	496	38	2	
11	0	0	0	0	496	491	0	492	38	2	
12	0	0	0	0	503	491	0	495	38	2	
13	0	0	0	0	516	489	0	495	39	2	
14	0	0	0	0	511	487	0	514	39	3	
15	0	0	0	0	507	487	0	535	38	3	
0	0	0	0	0	515	487	0	543	38	3	
1	0	0	0	0	518	487	0	564	38	2	
2	0	0	0	0	507	487	0	562	38	2	
3	0	0	0	0	509	487	0	549	38	2	
4	0	0	0	0	512	490	0	537	38	2	
5	0	0	0	0	502	490	0	525	39	2	
6	0	0	0	0	509	488	0	519	39	3	
7	0	0	0	0	509	489	0	512	38	3	
8	0	0	0	0	503	491	0	525	38	3	
9	0	0	0	0	499	494	0	539	38	2	
10	0	0	0	0	513	494	0	537	38	2	
11	0	0	0	0	506	493	0	532	38	2	
12	0	0	0	0	510	493	0	525	38	2	
13	0	0	0	0	512	492	0	541	38	2	
14	0	0	0	0	506	491	0	525	39	3	
15	0	0	0	0	499	490	0	519	39	3	
0	0	0	0	0	512	489	0	515	38	3	
1	0	0	0	0	503	491	0	513	38	2	
2	0	0	0	0	508	491	0	528	38	2	
3	0	0	0	0	501	491	0	547	38	2	
4	0	0	0	0	507	492	0	547	38	2	
5	0	0	0	0	510	493	0	539	39	2	
6	0	0	0	0	507	494	0	528	39	2	
7	0	0	0	0	504	494	0	519	38	3	
8	0	0	0	0	505	496	0	512	38	3	
9	0	0	0	0	508	496	0	526	38	3	
10	0	0	0	0	504	497	0	536	38	2	
11	0	0	0	0	506	497	0	544	38	2	
12	0	0	0	0	509	497	0	536	38	2	
13	0	0	0	0	504	498	0	529	38	2	
14	0	0	0	0	497	496	0	519	39	2	
15	0	0	0	0	509	496	0	514	38	3	
0	0	0	0	0	506	495	0	502	38	3	
1	0	0	0	0	511	495	0	494	38	3	
2	0	0	0	0	510	495	0	507	38	2	
3	0	0	0	0	512	494	0	532	38	2	
4	0	0	0	0	499	493	0	540	38	2	
5	0	0	0	0	502	493	0	540	38	2	
6	0	0	0	0	511	492	0	549	39	2	
7	0	0	0	0	507	492	0	555	38	3	
8	0	0	0	0	504	490	0	545	38	3	
9	0	0	0	0	513	491	0	536	38	3	
10	0	0	0	0	509	492	0	538	38	3	
11	0	0	0	0	511	492	0	527	38	2	
12	0	0	0	0	511	494	0	519	39	2	
13	0	0	0	0	506	495	0	512	39	2	
14	0	0	0	0	506	497	0	507	39	2	
15	0	0	0	0	510	499	0	506	38	2	
0	0	0	0	0	510	500	0	499	38	3	
1	0	0	0	0	505	504	0	499	38	3	
2	0	0	0	0	500	505	0	497	38	3	
3	0	0	0	0	504	504	0	498	38	2	
4	0	0	0	0	513	504	0	498	38	2	
5	0	0	0	0	505	503	0	494	39	2	
6	0	0	0	0	512	503	0	507	39	2	
7	0	0	0	0	504	504	0	528	38	2	
8	0	0	0	0	507	507	0	535	38	3	
9	0	0	0	0	505	510	0	568	38	3	
10	0	0	0	0	514	511	0	560	38	3	
11	0	0	0	0	509	512	0	551	39	3	
12	0	0	0	0	506	512	0	538	39	2	
13	0	0	0	0	510	511	0	525	39	2	
14	0	0	0	0	502	510	0	515	39	2	
15	0	0	0	0	506	510	0	505	39	2	
0	0	0	0	0	503	511	0	515	39	3	
1	0	0	0	0	512	511	0	527	39	3	
2	0	0	0	0	510	511	0	528	38	3	
3	0	0	0	0	511	512	0	524	39	3	
4	0	0	0	0	507	512	0	514	38	2	
5	0	0	0	0	505	514	0	511	38	2	
6	0	0	0	0	503	513	0	503	39	2	
7	0	0	0	0	507	512	0	499	38	2	
8	0	0	0	0	508	512	0	497	38	2	
9	0	0	0	0	508	511	0	492	38	3	
10	0	0	0	0	513	510	0	507	38	3	
11	0	0	0	0	498	511	0	530	38	3	
12	0	0	0	0	515	511	0	536	38	2	
13	0	0	0	0	505	512	0	534	39	2	
14	0	0	0	0	496	512	0	542	39	2	
15	0	0	0	0	502	514	0	547	38	2	
0	0	0	0	0	511	515	0	541	38	2	
1	0	0	0	0	507	517	0	537	38	3	
2	0	0	0	0	511	517	0	527	38	3	
3	0	0	0	0	507	515	0	515	38	3	
4	0	0	0	0	504	515	0	523	39	3	
5	0	0	0	0	507	515	0	501	39	2	
6	0	0	0	0	508	517	0	498	39	2	
7	0	0	0	0	511	520	0	494	38	2	
8	0	0	0	0	508	520	0	489	38	2	
9	0	0	0	0	502	523	0	492	38	3	
10	0	0	0	0	507	524	0	489	38	3	
11	0	0	0	0	503	525	0	494	38	3	
12	0	0	0	0	508	524	0	491	38	3	
13	0	0	0	0	516	522	0	488	39	2	
14	0	0	0	0	509	521	0	503	39	2	
15	0	0	0	0	509	521	0	526	38	2	
0	0	0	0	0	503	520	0	535	38	2	
1	0	0	0	0	513	520	0	552	38	2	
2	0	0	0	0	516	521	0	562	38	3	
3	0	0	0	0	512	523	0	545	38	3	
4	0	0	0	0	505	524	0	534	38	3	
5	0	0	0	0	506	525	0	519	39	3	
6	0	0	0	0	507	525	0	509	39	2	
7	0	0	0	0	514	525	0	500	39	2	
8	0	0	0	0	502	525	0	506	39	2	
9	0	0	0	0	506	525	0	538	38	2	
10	0	0	0	0	502	525	0	523	38	3	
11	0	0	0	0	507	526	0	519	39	3	
12	0	0	0	0	514	524	0	523	39	3	
13	0	0	0	0	506	526	0	518	39	3	
14	0	0	0	0	503	524	0	510	39	2	
15	0	0	0	0	503	523	0	504	38	2	
0	0	0	0	0	511	524	0	503	38	2	
1	0	0	0	0	516	524	0	493	38	2	
2	0	0	0	0	513	524	0	490	38	3	
3	0	0	0	0	502	523	0	495	38	3	
4	0	0	0	0	511	522	0	520	38	3	
5	0	0	0	0	508	520	0	534	39	3	
6	0	0	0	0	505	516	0	547	39	2	
7	0	0	0	0	506	513	0	556	38	2	
8	0	0	0	0	511	509	0	544	38	2	
9	0	0	0	0	504	507	0	528	38	2	
10	0	0	0	0	511	505	0	524	38	3	
11	0	0	0	0	502	504	0	502	38	3	
12	0	0	0	0	503	504	0	496	38	3	
13	0	0	0	0	506	504	0	490	38	3	
14	0	0	0	0	504	505	0	488	39	2	
15	0	0	0	0	507	505	0	488	39	2	
0	0	0	0	0	509	503	0	484	38	2	
1	0	0	0	0	505	503	0	486	38	2	
2	0	0	0	0	512	500	0	484	38	2	
3	0	0	0	0	509	498	0	487	38	3	
4	0	0	0	0	501	497	0	486	38	3	
5	0	0	0	0	511	495	0	485	39	3	
6	0	0	0	0	509	494	0	500	39	3	
7	0	0	0	0	503	493	0	523	38	2	
8	0	0	0	0	510	492	0	531	38	2	
9	0	0	0	0	514	491	0	550	38	2	
10	0	0	0	0	511	493	0	553	38	2	
11	0	0	0	0	506	497	0	542	38	3	
12	0	0	0	0	512	497	0	537	38	3	
13	0	0	0	0	506	497	0	532	38	3	
14	0	0	0	0	508	496	0	524	39	3	
15	0	0	0	0	508	493	0	512	39	2	
0	0	0	0	0	510	490	0	519	38	2	
1	0	0	0	0	499	487	0	541	39	2	
2	0	0	0	0	505	485	0	542	38	2	
3	0	0	0	0	505	485	0	537	38	3	
4	0	0	0	0	511	484	0	524	38	3	
5	0	0	0	0	503	486	0	516	38	3	
6	0	0	0	0	507	485	0	510	39	3	
7	0	0	0	0	504	484	0	504	38	2	
8	0	0	0	0	513	485	0	512	38	2	
9	0	0	0	0	514	485	0	495	38	2	
10	0	0	0	0	507	485	0	508	38	2	
11	0	0	0	0	512	485	0	531	38	2	
12	0	0	0	0	501	485	0	536	38	3	
13	0	0	0	0	502	486	0	531	39	3	
14	0	0	0	0	506	486	0	539	39	3	
15	0	0	0	0	510	485	0	547	38	3	
0	0	0	0	0	507	483	0	534	39	2	
1	0	0	0	0	506	482	0	522	38	2	
2	0	0	0	0	501	482	0	513	38	2	
3	0	0	0	0	509	483	0	503	39	2	
4	0	0	0	0	501	483	0	501	39	3	
5	0	0	0	0	515	480	0	496	39	3	
6	0	0	0	0	504	480	0	499	39	3	
7	0	0	0	0	507	481	0	496	39	3	
8	0	0	0	0	505	483	0	492	39	2	
9	0	0	0	0	512	486	0	494	39	2	
10	0	0	0	0	514	486	0	490	38	2	
11	0	0	0	0	509	487	0	492	39	2	
12	0	0	0	0	515	487	0	492	38	2	
13	0	0	0	0	504	488	0	513	38	3	
14	0	0	0	0	503	488	0	535	39	3	
15	0	0	0	0	504	491	0	542	38	3	
0	0	0	0	0	506	493	0	561	38	2	
1	0	0	0	0	513	495	0	559	38	2	
2	0	0	0	0	508	494	0	556	38	2	
3	0	0	0	0	508	493	0	547	38	2	
4	0	0	0	0	510	492	0	535	38	2	
5	0	0	0	0	503	493	0	523	38	3	
6	0	0	0	0	507	495	0	515	39	3	
7	0	0	0	0	509	496	0	508	38	3	
8	0	0	0	0	509	497	0	505	38	3	
9	0	0	0	0	504	497	0	503	38	2	
10	0	0	0	0	512	495	0	502	38	2	
11	0	0	0	0	502	494	0	523	38	2	
12	0	0	0	0	510	493	0	537	38	2	
13	0	0	0	0	513	493	0	535	38	3	
14	0	0	0	0	507	494	0	536	39	3	
15	0	0	0	0	510	495	0	554	38	3	
0	0	0	0	0	506	496	0	558	38	3	
1	0	0	0	0	507	496	0	546	38	2	
2	0	0	0	0	508	498	0	535	38	2	
3	0	0	0	0	506	498	0	526	38	2	
4	0	0	0	0	509	497	0	517	38	2	
5	0	0	0	0	508	495	0	514	39	2	
6	0	0	0	0	512	491	0	506	39	2	
7	0	0	0	0	511	489	0	502	38	3	
8	0	0	0	0	513	486	0	506	38	3	
9	0	0	0	0	499	484	0	528	39	2	
10	0	0	0	0	508	482	0	535	38	2	
11	0	0	0	0	509	480	0	527	39	2	
12	0	0	0	0	507	480	0	521	39	2	
13	0	0	0	0	510	477	0	520	39	2	
14	0	0	0	0	508	475	0	522	39	3	
15	0	0	0	0	507	475	0	518	39	3	
0	0	0	0	0	506	475	0	528	39	3	
1	0	0	0	0	513	477	0	542	39	2	
2	0	0	0	0	505	479	0	540	38	2	
3	0	0	0	0	509	481	0	530	39	2	
4	0	0	0	0	509	484	0	522	39	2	
5	0	0	0	0	511	487	0	510	39	2	
6	0	0	0	0	511	493	0	506	39	2	
7	0	0	0	0	508	498	0	513	38	3	
8	0	0	0	0	502	504	0	500	38	3	
9	0	0	0	0	509	512	0	498	38	2	
10	0	0	0	0	508	521	0	514	38	2	
11	0	0	0	0	505	533	0	534	38	2	
12	0	0	0	0	512	545	0	536	38	2	
13	0	0	0	0	512	560	0	534	38	2	
14	0	0	0	0	506	576	0	549	39	2	
15	0	0	0	0	510	596	0	549	38	3	
0	0	0	0	0	504	617	0	537	38	3	
1	0	0	0	0	503	639	0	524	38	2	
2	0	0	0	0	502	661	0	514	38	2	
3	0	0	0	0	512	684	0	509	38	2	
4	0	0	0	0	515	705	0	499	38	2	
5	0	0	0	0	507	730	0	497	38	2	
6	0	0	0	0	508	754	0	491	39	2	
7	0	0	0	0	506	776	0	490	38	3	
8	0	0	0	0	505	799	0	491	38	3	
9	0	0	0	0	511	816	0	486	38	3	
10	0	0	0	0	504	830	0	486	38	3	
11	0	0	0	0	502	835	0	483	38	2	
12	0	0	0	0	508	836	0	488	38	2	
13	0	0	0	0	513	829	0	512	38	2	
14	0	0	0	0	513	816	0	527	39	2	
15	0	0	0	0	510	799	0	540	38	2	
0	0	0	0	0	507	774	0	552	38	3	
1	0	0	0	0	506	745	0	547	38	3	
2	0	0	0	0	503	715	0	555	38	3	
3	0	0	0	0	508	686	0	531	39	2	
4	0	0	0	0	504	660	0	521	39	2	
5	0	0	0	0	496	633	0	510	39	2	
6	0	0	0	0	507	607	0	501	39	2	
7	0	0	0	0	508	584	0	511	39	2	
8	0	0	0	0	506	563	0	509	38	3	
9	0	0	0	0	512	543	0	509	38	3	
10	0	0	0	0	508	522	0	503	38	3	
11	0	0	0	0	506	505	0	495	38	2	
12	0	0	0	0	513	491	0	494	39	2	
13	0	0	0	0	510	478	0	509	39	2	
14	0	0	0	0	507	468	0	527	39	2	
15	0	0	0	0	503	457	0	528	39	2	
0	0	0	0	0	510	447	0	521	38	3	
1	0	0	0	0	505	436	0	516	38	3	
2	0	0	0	0	518	423	0	506	38	3	
3	0	0	0	0	506	415	0	502	39	3	
4	0	0	0	0	509	410	0	499	38	2	
5	0	0	0	0	508	404	0	498	39	2	
6	0	0	0	0	508	400	0	498	39	2	
7	0	0	0	0	506	393	0	494	38	2	
8	0	0	0	0	508	387	0	495	38	3	
9	0	0	0	0	503	380	0	494	38	3	
10	0	0	0	0	499	375	0	495	38	3	
11	0	0	0	0	504	373	0	498	38	3	
12	0	0	0	0	509	372	0	515	38	2	
13	0	0	0	0	511	373	0	534	38	2	
14	0	0	0	0	511	373	0	544	39	2	
15	0	0	0	0	504	376	0	564	38	2	
0	0	0	0	0	512	381	0	561	38	2	
1	0	0	0	0	506	384	0	566	38	3	
2	0	0	0	0	505	390	0	572	38	3	
3	0	0	0	0	511	395	0	568	38	3	
4	0	0	0	0	506	400	0	558	38	2	
5	0	0	0	0	514	405	0	542	38	2	
6	0	0	0	0	506	408	0	525	39	2	
7	0	0	0	0	506	412	0	514	38	2	
8	0	0	0	0	498	416	0	506	38	2	
9	0	0	0	0	500	420	0	499	38	3	
10	0	0	0	0	504	426	0	495	38	3	
11	0	0	0	0	514	430	0	497	38	3	
12	0	0	0	0	507	435	0	505	38	3	
13	0	0	0	0	504	439	0	527	38	2	
14	0	0	0	0	499	442	0	532	39	2	
15	0	0	0	0	512	445	0	528	38	2	
0	0	0	0	0	506	449	0	538	38	2	
1	0	0	0	0	505	453	0	550	38	3	
2	0	0	0	0	515	454	0	545	38	3	
3	0	0	0	0	508	454	0	532	38	3	
4	0	0	0	0	509	457	0	520	38	3	
5	0	0	0	0	509	458	0	510	38	2	
6	0	0	0	0	508	460	0	503	39	2	
7	0	0	0	0	513	460	0	497	38	2	
8	0	0	0	0	508	460	0	496	38	2	
9	0	0	0	0	505	459	0	492	38	2	
10	0	0	0	0	507	459	0	510	38	3	
11	0	0	0	0	508	459	0	526	38	3	
12	0	0	0	0	508	459	0	525	38	3	
13	0	0	0	0	511	460	0	523	38	3	
14	0	0	0	0	512	463	0	536	39	2	
15	0	0	0	0	511	467	0	539	38	2	
0	0	0	0	0	507	472	0	536	38	2	
1	0	0	0	0	511	471	0	528	38	2	
2	0	0	0	0	502	471	0	523	38	3	
3	0	0	0	0	507	471	0	510	38	3	
4	0	0	0	0	511	470	0	502	38	3	
5	0	0	0	0	505	471	0	499	38	3	
6	0	0	0	0	504	473	0	495	39	2	
7	0	0	0	0	515	477	0	495	38	2	
8	0	0	0	0	502	480	0	494	38	2	
9	0	0	0	0	510	483	0	495	38	2	
10	0	0	0	0	504	485	0	495	38	3	
11	0	0	0	0	505	485	0	493	39	3	
12	0	0	0	0	512	486	0	498	38	3	
13	0	0	0	0	502	486	0	499	39	3	
14	0	0	0	0	504	485	0	519	39	2	
15	0	0	0	0	511	486	0	537	38	2	
0	0	0	0	0	512	485	0	543	38	2	
1	0	0	0	0	504	485	0	562	38	2	
2	0	0	0	0	507	484	0	560	38	3	
3	0	0	0	0	506	485	0	547	38	3	
4	0	0	0	0	504	488	0	531	38	3	
5	0	0	0	0	509	491	0	519	39	3	
6	0	0	0	0	505	493	0	510	39	2	
7	0	0	0	0	508	492	0	507	38	2	
8	0	0	0	0	513	492	0	499	38	2	
9	0	0	0	0	507	493	0	498	38	2	
10	0	0	0	0	518	492	0	502	38	2	
11	0	0	0	0	503	492	0	526	38	3	
12	0	0	0	0	504	492	0	535	38	3	
13	0	0	0	0	510	492	0	550	38	3	
14	0	0	0	0	506	492	0	560	39	3	
15	0	0	0	0	509	491	0	560	38	2	
0	0	0	0	0	504	491	0	550	39	2	
1	0	0	0	0	512	493	0	535	38	2	
2	0	0	0	0	513	492	0	518	38	2	
3	0	0	0	0	505	492	0	506	38	3	
4	0	0	0	0	501	492	0	495	38	3	
5	0	0	0	0	503	491	0	489	39	3	
6	0	0	0	0	510	492	0	489	39	3	
7	0	0	0	0	512	492	0	484	38	2	
8	0	0	0	0	511	492	0	485	38	2	
9	0	0	0	0	511	491	0	491	38	2	
10	0	0	0	0	505	491	0	516	38	2	
11	0	0	0	0	508	492	0	527	38	2	
12	0	0	0	0	507	492	0	519	38	3	
13	0	0	0	0	511	492	0	512	39	3	
14	0	0	0	0	515	492	0	504	39	3	
15	0	0	0	0	510	492	0	499	38	2	
0	0	0	0	0	508	493	0	514	38	2	
1	0	0	0	0	510	494	0	522	38	2	
2	0	0	0	0	505	496	0	521	38	2	
3	0	0	0	0	504	497	0	512	38	2	
4	0	0	0	0	502	499	0	504	38	3	
5	0	0	0	0	510	499	0	499	38	3	
6	0	0	0	0	501	499	0	492	39	3	
7	0	0	0	0	513	501	0	493	38	3	
8	0	0	0	0	513	502	0	486	38	2	
9	0	0	0	0	507	503	0	489	38	2	
10	0	0	0	0	505	500	0	510	38	2	
11	0	0	0	0	507	500	0	521	38	2	
12	0	0	0	0	513	501	0	520	38	3	
13	0	0	0	0	510	501	0	519	39	3	
14	0	0	0	0	507	500	0	521	39	3	
15	0	0	0	0	508	499	0	514	39	3	
0	0	0	0	0	502	500	0	524	38	2	
1	0	0	0	0	503	503	0	540	38	2	
2	0	0	0	0	510	504	0	536	38	2	
3	0	0	0	0	502	504	0	525	38	2	
4	0	0	0	0	505	504	0	515	39	2	
5	0	0	0	0	517	504	0	515	39	3	
6	0	0	0	0	512	503	0	501	39	3	
7	0	0	0	0	506	502	0	495	38	3	
8	0	0	0	0	508	501	0	494	38	2	
9	0	0	0	0	499	502	0	489	38	2	
10	0	0	0	0	505	501	0	505	38	2	
11	0	0	0	0	503	502	0	521	38	2	
12	0	0	0	0	512	502	0	525	38	2	
13	0	0	0	0	508	504	0	521	38	3	
14	0	0	0	0	499	505	0	535	39	3	
15	0	0	0	0	508	507	0	537	38	3	
0	0	0	0	0	508	507	0	526	38	3	
1	0	0	0	0	510	507	0	513	38	2	
2	0	0	0	0	507	507	0	504	38	2	
3	0	0	0	0	506	509	0	497	38	2	
4	0	0	0	0	512	509	0	491	38	2	
5	0	0	0	0	513	511	0	489	38	3	
6	0	0	0	0	508	508	0	484	39	3	
7	0	0	0	0	506	508	0	482	38	3	
8	0	0	0	0	514	509	0	480	38	3	
9	0	0	0	0	504	510	0	479	38	2	
10	0	0	0	0	510	512	0	482	38	2	
11	0	0	0	0	511	513	0	478	38	2	
12	0	0	0	0	502	515	0	486	38	2	
13	0	0	0	0	505	512	0	510	38	3	
14	0	0	0	0	501	512	0	528	39	3	
15	0	0	0	0	504	512	0	540	38	3	
0	0	0	0	0	509	510	0	555	38	3	
1	0	0	0	0	509	510	0	550	38	2	
2	0	0	0	0	507	509	0	547	38	2	
3	0	0	0	0	507	509	0	532	38	2	
4	0	0	0	0	515	510	0	521	38	2	
5	0	0	0	0	505	508	0	511	39	2	
6	0	0	0	0	497	508	0	504	39	3	
7	0	0	0	0	507	509	0	503	39	3	
8	0	0	0	0	512	509	0	494	38	3	
9	0	0	0	0	511	511	0	493	38	2	
10	0	0	0	0	505	511	0	492	38	2	
11	0	0	0	0	507	510	0	494	38	2	
12	0	0	0	0	506	510	0	494	38	2	
13	0	0	0	0	516	510	0	492	38	2	
14	0	0	0	0	508	512	0	496	39	3	
15	0	0	0	0	512	514	0	500	39	3	
0	0	0	0	0	506	518	0	526	38	3	
1	0	0	0	0	504	521	0	537	38	2	
2	0	0	0	0	508	523	0	552	38	2	
3	0	0	0	0	511	526	0	567	39	2	
4	0	0	0	0	496	527	0	560	39	2	
5	0	0	0	0	502	528	0	545	39	2	
6	0	0	0	0	511	530	0	531	39	2	
7	0	0	0	0	513	531	0	517	38	3	
8	0	0	0	0	508	531	0	523	38	3	
9	0	0	0	0	508	532	0	534	38	2	
10	0	0	0	0	507	533	0	532	38	2	
11	0	0	0	0	508	533	0	528	38	2	
12	0	0	0	0	504	533	0	530	39	2	
13	0	0	0	0	511	534	0	527	39	2	
14	0	0	0	0	500	534	0	519	39	2	
15	0	0	0	0	508	535	0	516	39	2	
0	0	0	0	0	510	536	0	510	39	3	
1	0	0	0	0	507	537	0	504	39	2	
2	0	0	0	0	504	539	0	502	38	2	
3	0	0	0	0	508	540	0	505	38	2	
4	0	0	0	0	510	542	0	531	39	2	
5	0	0	0	0	514	543	0	542	39	2	
6	0	0	0	0	504	544	0	539	39	2	
7	0	0	0	0	509	546	0	545	38	2	
8	0	0	0	0	507	546	0	560	38	3	
9	0	0	0	0	510	545	0	552	38	3	
10	0	0	0	0	507	545	0	541	38	3	
11	0	0	0	0	511	544	0	526	38	2	
12	0	0	0	0	500	545	0	518	38	2	
13	0	0	0	0	505	544	0	512	38	2	
14	0	0	0	0	502	543	0	509	39	2	
15	0	0	0	0	508	545	0	512	38	2	
0	0	0	0	0	502	547	0	523	38	3	
1	0	0	0	0	505	552	0	541	38	3	
2	0	0	0	0	510	555	0	541	38	3	
3	0	0	0	0	503	558	0	535	38	2	
4	0	0	0	0	513	560	0	530	38	2	
5	0	0	0	0	508	560	0	519	38	2	
6	0	0	0	0	515	562	0	532	39	2	
7	0	0	0	0	509	563	0	512	38	2	
8	0	0	0	0	506	562	0	512	38	3	
9	0	0	0	0	508	562	0	507	38	3	
10	0	0	0	0	505	562	0	520	38	3	
11	0	0	0	0	506	563	0	540	38	3	
12	0	0	0	0	504	565	0	543	38	2	
13	0	0	0	0	506	566	0	553	38	2	
14	0	0	0	0	510	566	0	542	39	2	
15	0	0	0	0	512	566	0	537	38	2	
0	0	0	0	0	510	567	0	542	38	3	
1	0	0	0	0	508	568	0	557	38	3	
2	0	0	0	0	506	568	0	556	38	3	
3	0	0	0	0	502	568	0	542	38	3	
4	0	0	0	0	512	567	0	530	38	2	
5	0	0	0	0	506	567	0	519	38	2	
6	0	0	0	0	508	566	0	508	39	2	
7	0	0	0	0	514	567	0	505	38	2	
8	0	0	0	0	511	568	0	497	38	2	
9	0	0	0	0	503	568	0	490	38	2	
10	0	0	0	0	513	571	0	491	38	3	
11	0	0	0	0	503	573	0	492	38	3	
12	0	0	0	0	506	575	0	494	38	2	
13	0	0	0	0	507	575	0	493	38	2	
14	0	0	0	0	503	575	0	492	39	2	
15	0	0	0	0	506	575	0	495	38	2	
0	0	0	0	0	511	573	0	490	38	2	
1	0	0	0	0	509	571	0	487	39	3	
2	0	0	0	0	504	569	0	489	38	3	
3	0	0	0	0	506	566	0	489	38	3	
4	0	0	0	0	508	565	0	494	38	3	
5	0	0	0	0	506	562	0	496	38	2	
6	0	0	0	0	506	560	0	501	39	2	
7	0	0	0	0	515	560	0	504	38	2	
8	0	0	0	0	510	558	0	499	38	2	
9	0	0	0	0	511	557	0	496	38	3	
10	0	0	0	0	507	553	0	496	38	3	
11	0	0	0	0	508	551	0	502	38	3	
12	0	0	0	0	508	547	0	527	38	3	
13	0	0	0	0	516	543	0	545	39	2	
14	0	0	0	0	509	541	0	559	39	2	
15	0	0	0	0	509	539	0	571	38	2	
0	0	0	0	0	501	537	0	566	39	2	
1	0	0	0	0	507	533	0	573	38	2	
2	0	0	0	0	508	528	0	576	38	3	
3	0	0	0	0	509	526	0	579	39	3	
4	0	0	0	0	496	523	0	588	39	3	
5	0	0	0	0	504	520	0	583	39	2	
6	0	0	0	0	510	516	0	588	39	2	
7	0	0	0	0	508	514	0	580	38	2	
8	0	0	0	0	507	510	0	573	39	2	
9	0	0	0	0	505	507	0	576	38	2	
10	0	0	0	0	508	503	0	568	38	3	
11	0	0	0	0	502	500	0	552	39	3	
12	0	0	0	0	514	496	0	537	38	3	
13	0	0	0	0	505	493	0	522	39	3	
14	0	0	0	0	505	488	0	512	39	2	
15	0	0	0	0	511	484	0	507	38	2	
0	0	0	0	0	508	480	0	501	38	2	
1	0	0	0	0	509	475	0	498	38	2	
2	0	0	0	0	497	473	0	498	38	3	
3	0	0	0	0	501	470	0	497	39	3	
4	0	0	0	0	497	467	0	496	38	3	
5	0	0	0	0	506	465	0	494	39	3	
6	0	0	0	0	516	462	0	490	39	2	
7	0	0	0	0	507	459	0	500	38	2	
8	0	0	0	0	503	457	0	526	39	2	
9	0	0	0	0	512	455	0	526	38	2	
10	0	0	0	0	513	451	0	542	38	2	
11	0	0	0	0	513	449	0	546	38	3	
12	0	0	0	0	504	447	0	536	38	3	
13	0	0	0	0	506	443	0	536	39	3	
14	0	0	0	0	503	442	0	529	39	2	
15	0	0	0	0	509	441	0	519	38	2	
0	0	0	0	0	504	440	0	528	38	2	
1	0	0	0	0	506	441	0	542	38	2	
2	0	0	0	0	512	441	0	538	38	2	
3	0	0	0	0	511	440	0	527	38	3	
4	0	0	0	0	505	440	0	518	38	3	
5	0	0	0	0	504	439	0	504	38	3	
6	0	0	0	0	506	439	0	496	39	3	
7	0	0	0	0	515	439	0	492	38	2	
8	0	0	0	0	509	438	0	489	38	2	
9	0	0	0	0	507	435	0	487	39	2	
10	0	0	0	0	512	431	0	501	38	2	
11	0	0	0	0	508	429	0	518	38	3	
12	0	0	0	0	508	427	0	519	38	3	
13	0	0	0	0	510	426	0	516	38	3	
14	0	0	0	0	499	424	0	531	39	3	
15	0	0	0	0	505	423	0	531	38	2	
0	0	0	0	0	504	421	0	523	38	2	
1	0	0	0	0	513	421	0	509	38	2	
2	0	0	0	0	505	423	0	503	38	2	
3	0	0	0	0	504	427	0	495	38	3	
4	0	0	0	0	504	428	0	485	38	3	
5	0	0	0	0	509	428	0	481	38	3	
6	0	0	0	0	507	427	0	478	39	3	
7	0	0	0	0	508	427	0	479	38	2	
8	0	0	0	0	504	429	0	476	38	2	
9	0	0	0	0	512	430	0	490	38	2	
10	0	0	0	0	501	429	0	487	38	2	
11	0	0	0	0	499	428	0	515	38	2	
12	0	0	0	0	511	428	0	525	38	3	
13	0	0	0	0	503	427	0	544	38	3	
14	0	0	0	0	511	428	0	547	39	3	
15	0	0	0	0	504	427	0	544	38	3	
0	0	0	0	0	507	424	0	535	39	2	
1	0	0	0	0	504	424	0	524	38	2	
2	0	0	0	0	515	423	0	514	38	2	
3	0	0	0	0	505	423	0	500	38	2	
4	0	0	0	0	503	425	0	495	38	3	
5	0	0	0	0	512	425	0	490	39	3	
6	0	0	0	0	509	425	0	487	39	3	
7	0	0	0	0	510	426	0	487	38	3	
8	0	0	0	0	502	427	0	480	38	2	
9	0	0	0	0	505	429	0	482	38	2	
10	0	0	0	0	508	430	0	477	38	2	
11	0	0	0	0	508	430	0	478	38	2	
12	0	0	0	0	503	431	0	477	38	2	
13	0	0	0	0	511	434	0	495	38	3	
14	0	0	0	0	505	436	0	519	39	3	
15	0	0	0	0	507	438	0	525	38	3	
0	0	0	0	0	513	441	0	542	38	2	
1	0	0	0	0	503	442	0	540	38	2	
2	0	0	0	0	507	442	0	527	38	2	
3	0	0	0	0	504	443	0	532	38	2	
4	0	0	0	0	505	443	0	505	38	2	
5	0	0	0	0	507	443	0	500	38	3	
6	0	0	0	0	505	443	0	495	39	3	
7	0	0	0	0	507	443	0	489	38	3	
8	0	0	0	0	516	445	0	487	38	3	
9	0	0	0	0	508	447	0	489	38	2	
10	0	0	0	0	508	448	0	513	38	2	
11	0	0	0	0	508	449	0	521	39	2	
12	0	0	0	0	509	449	0	517	38	2	
13	0	0	0	0	502	449	0	519	38	3	
14	0	0	0	0	500	448	0	516	39	3	
15	0	0	0	0	504	448	0	512	38	3	
0	0	0	0	0	510	449	0	528	38	3	
1	0	0	0	0	505	451	0	537	38	2	
2	0	0	0	0	505	453	0	533	38	2	
3	0	0	0	0	509	454	0	522	38	2	
4	0	0	0	0	509	454	0	511	39	2	
5	0	0	0	0	516	454	0	505	39	3	
6	0	0	0	0	510	454	0	497	39	3	
7	0	0	0	0	512	455	0	495	38	3	
8	0	0	0	0	512	456	0	488	39	3	
9	0	0	0	0	496	457	0	490	38	2	
10	0	0	0	0	501	457	0	510	38	2	
11	0	0	0	0	518	458	0	522	39	2	
12	0	0	0	0	507	463	0	522	39	2	
13	0	0	0	0	514	465	0	517	39	2	
14	0	0	0	0	503	467	0	512	39	3	
15	0	0	0	0	509	467	0	508	39	3	
0	0	0	0	0	508	467	0	520	38	3	
1	0	0	0	0	500	468	0	533	38	2	
2	0	0	0	0	503	467	0	531	38	2	
3	0	0	0	0	505	467	0	524	39	2	
4	0	0	0	0	510	469	0	516	39	2	
5	0	0	0	0	513	469	0	508	38	2	
6	0	0	0	0	504	470	0	504	39	3	
7	0	0	0	0	501	471	0	513	38	3	
8	0	0	0	0	515	471	0	497	38	3	
9	0	0	0	0	503	472	0	494	38	2	
10	0	0	0	0	503	475	0	509	38	2	
11	0	0	0	0	503	477	0	526	38	2	
12	0	0	0	0	515	477	0	528	38	2	
13	0	0	0	0	504	478	0	525	39	2	
14	0	0	0	0	504	477	0	540	39	2	
15	0	0	0	0	512	477	0	542	38	3	
0	0	0	0	0	507	478	0	543	39	3	
1	0	0	0	0	516	477	0	536	38	2	
2	0	0	0	0	508	476	0	526	38	2	
3	0	0	0	0	504	475	0	517	39	2	
4	0	0	0	0	509	473	0	506	38	2	
5	0	0	0	0	510	473	0	502	38	2	
6	0	0	0	0	498	475	0	495	39	2	
7	0	0	0	0	505	476	0	494	38	3	
8	0	0	0	0	505	478	0	490	38	3	
9	0	0	0	0	510	478	0	486	38	3	
10	0	0	0	0	513	479	0	488	38	3	
11	0	0	0	0	505	480	0	486	38	2	
12	0	0	0	0	503	481	0	490	38	2	
13	0	0	0	0	505	484	0	489	39	2	
14	0	0	0	0	509	486	0	508	39	2	
15	0	0	0	0	511	487	0	528	38	3	
0	0	0	0	0	505	485	0	526	38	3	
1	0	0	0	0	505	485	0	519	38	3	
2	0	0	0	0	501	485	0	507	38	2	
3	0	0	0	0	511	486	0	497	38	2	
4	0	0	0	0	509	487	0	496	38	2	
5	0	0	0	0	507	486	0	490	38	2	
6	0	0	0	0	505	485	0	494	39	2	
7	0	0	0	0	504	485	0	492	38	2	
8	0	0	0	0	512	486	0	507	38	3	
9	0	0	0	0	513	488	0	527	38	3	
10	0	0	0	0	505	487	0	536	38	3	
11	0	0	0	0	507	488	0	559	38	2	
12	0	0	0	0	507	490	0	557	38	2	
13	0	0	0	0	500	491	0	565	38	2	
14	0	0	0	0	510	492	0	574	39	2	
15	0	0	0	0	510	492	0	560	38	2	
0	0	0	0	0	508	493	0	541	38	3	
1	0	0	0	0	507	495	0	520	38	3	
2	0	0	0	0	509	495	0	528	38	3	
3	0	0	0	0	504	495	0	540	38	2	
4	0	0	0	0	513	495	0	544	38	2	
5	0	0	0	0	506	494	0	546	38	2	
6	0	0	0	0	504	493	0	537	39	2	
7	0	0	0	0	514	493	0	527	38	2	
8	0	0	0	0	504	495	0	532	38	2	
9	0	0	0	0	499	496	0	549	38	3	
10	0	0	0	0	503	497	0	546	38	3	
11	0	0	0	0	512	497	0	536	38	3	
12	0	0	0	0	514	497	0	524	38	2	
13	0	0	0	0	510	498	0	518	39	2	
14	0	0	0	0	509	499	0	513	39	2	
15	0	0	0	0	510	499	0	506	38	2	
0	0	0	0	0	508	499	0	502	38	2	
1	0	0	0	0	507	499	0	497	38	3	
2	0	0	0	0	510	499	0	507	38	3	
3	0	0	0	0	512	499	0	531	38	3	
4	0	0	0	0	506	498	0	541	38	2	
5	0	0	0	0	505	497	0	560	38	2	
6	0	0	0	0	513	498	0	559	39	2	
7	0	0	0	0	505	500	0	545	38	2	
8	0	0	0	0	504	501	0	537	38	2	
9	0	0	0	0	508	504	0	532	38	3	
10	0	0	0	0	510	506	0	523	38	3	
11	0	0	0	0	513	505	0	512	38	3	
12	0	0	0	0	505	506	0	508	38	3	
13	0	0	0	0	508	505	0	502	39	2	
14	0	0	0	0	505	504	0	499	39	2	
15	0	0	0	0	509	507	0	497	38	2	
0	0	0	0	0	501	508	0	493	38	2	
1	0	0	0	0	504	510	0	494	38	3	
2	0	0	0	0	505	509	0	490	38	3	
3	0	0	0	0	509	508	0	492	39	3	
4	0	0	0	0	508	508	0	493	39	3	
5	0	0	0	0	503	508	0	511	39	2	
6	0	0	0	0	506	507	0	534	39	2	
7	0	0	0	0	511	506	0	542	39	2	
8	0	0	0	0	505	505	0	558	39	2	
9	0	0	0	0	504	505	0	554	38	2	
10	0	0	0	0	506	505	0	539	38	3	
11	0	0	0	0	510	505	0	528	38	3	
12	0	0	0	0	507	504	0	515	38	3	
13	0	0	0	0	511	503	0	507	38	2	
14	0	0	0	0	510	502	0	503	39	2	
15	0	0	0	0	509	502	0	497	38	2	
0	0	0	0	0	510	504	0	496	38	2	
1	0	0	0	0	511	502	0	498	38	2	
2	0	0	0	0	508	502	0	523	38	3	
3	0	0	0	0	507	502	0	540	39	3	
4	0	0	0	0	512	501	0	530	38	3	
5	0	0	0	0	504	501	0	523	38	3	
6	0	0	0	0	505	499	0	516	39	2	
7	0	0	0	0	504	498	0	514	38	2	
8	0	0	0	0	507	499	0	531	38	2	
9	0	0	0	0	511	501	0	538	38	2	
10	0	0	0	0	506	504	0	534	38	3	
11	0	0	0	0	504	504	0	531	38	3	
12	0	0	0	0	501	504	0	532	38	3	
13	0	0	0	0	508	504	0	527	39	3	
14	0	0	0	0	511	503	0	515	39	2	
15	0	0	0	0	513	504	0	509	38	2	
0	0	0	0	0	507	504	0	504	38	2	
1	0	0	0	0	500	505	0	502	38	2	
2	0	0	0	0	513	507	0	501	38	2	
3	0	0	0	0	504	509	0	517	38	3	
4	0	0	0	0	509	512	0	537	38	3	
5	0	0	0	0	505	513	0	536	38	3	
6	0	0	0	0	504	513	0	531	39	2	
7	0	0	0	0	504	513	0	524	38	2	
8	0	0	0	0	510	512	0	514	38	2	
9	0	0	0	0	498	512	0	521	38	2	
10	0	0	0	0	501	509	0	540	38	2	
11	0	0	0	0	508	508	0	542	38	3	
12	0	0	0	0	505	508	0	533	38	3	
13	0	0	0	0	513	508	0	540	38	3	
14	0	0	0	0	510	508	0	557	39	3	
15	0	0	0	0	513	507	0	547	38	2	
0	0	0	0	0	503	506	0	560	38	2	
1	0	0	0	0	505	505	0	552	38	2	
2	0	0	0	0	510	503	0	537	38	2	
3	0	0	0	0	510	504	0	525	38	3	
4	0	0	0	0	503	504	0	512	38	3	
5	0	0	0	0	503	505	0	505	38	3	
6	0	0	0	0	511	507	0	497	39	3	
7	0	0	0	0	504	507	0	491	38	2	
8	0	0	0	0	510	511	0	488	38	2	
9	0	0	0	0	507	511	0	492	38	2	
10	0	0	0	0	501	513	0	517	38	2	
11	0	0	0	0	512	513	0	524	38	3	
12	0	0	0	0	512	512	0	519	38	3	
13	0	0	0	0	507	512	0	512	38	3	
14	0	0	0	0	519	512	0	512	39	3	
15	0	0	0	0	506	513	0	518	38	2	
0	0	0	0	0	512	514	0	513	38	2	
1	0	0	0	0	505	514	0	523	38	2	
2	0	0	0	0	511	512	0	541	38	2	
3	0	0	0	0	510	510	0	538	38	2	
4	0	0	0	0	502	511	0	529	38	3	
5	0	0	0	0	503	512	0	520	38	3	
6	0	0	0	0	507	513	0	509	39	3	
7	0	0	0	0	512	515	0	501	38	3	
8	0	0	0	0	511	516	0	492	38	2	
9	0	0	0	0	513	519	0	486	38	2	
10	0	0	0	0	504	518	0	482	38	2	
11	0	0	0	0	504	515	0	502	38	2	
12	0	0	0	0	507	515	0	518	39	3	
13	0	0	0	0	504	513	0	520	39	3	
14	0	0	0	0	505	512	0	519	39	3	
15	0	0	0	0	506	511	0	532	38	3	
0	0	0	0	0	517	511	0	539	38	2	
1	0	0	0	0	510	510	0	528	38	2	
2	0	0	0	0	506	510	0	517	38	2	
3	0	0	0	0	501	509	0	508	38	2	
4	0	0	0	0	511	510	0	500	39	3	
5	0	0	0	0	506	511	0	493	38	3	
6	0	0	0	0	509	513	0	491	39	3	
7	0	0	0	0	503	514	0	484	38	3	
8	0	0	0	0	504	513	0	489	38	2	
9	0	0	0	0	508	511	0	505	38	2	
10	0	0	0	0	511	510	0	516	38	2	
11	0	0	0	0	506	511	0	515	38	2	
12	0	0	0	0	512	512	0	513	39	2	
13	0	0	0	0	497	515	0	516	39	3	
14	0	0	0	0	506	515	0	511	39	3	
15	0	0	0	0	513	515	0	523	38	3	
0	0	0	0	0	512	512	0	532	38	3	
1	0	0	0	0	511	510	0	530	39	2	
2	0	0	0	0	504	508	0	519	38	2	
3	0	0	0	0	506	505	0	509	38	2	
4	0	0	0	0	508	502	0	499	38	2	
5	0	0	0	0	509	501	0	492	39	3	
6	0	0	0	0	511	499	0	487	39	3	
7	0	0	0	0	504	498	0	486	38	3	
8	0	0	0	0	506	499	0	486	39	3	
9	0	0	0	0	509	502	0	500	38	2	
10	0	0	0	0	510	505	0	525	38	2	
11	0	0	0	0	508	509	0	529	38	2	
12	0	0	0	0	509	511	0	523	38	2	
13	0	0	0	0	511	513	0	515	38	3	
14	0	0	0	0	508	515	0	505	39	3	
15	0	0	0	0	503	517	0	514	38	3	
0	0	0	0	0	508	517	0	524	38	3	
1	0	0	0	0	509	518	0	521	38	2	
2	0	0	0	0	508	518	0	513	38	2	
3	0	0	0	0	507	516	0	503	38	2	
4	0	0	0	0	501	516	0	499	38	2	
5	0	0	0	0	506	516	0	493	38	2	
6	0	0	0	0	507	516	0	493	39	3	
7	0	0	0	0	504	515	0	488	38	3	
8	0	0	0	0	507	513	0	485	38	3	
9	0	0	0	0	508	514	0	499	38	2	
10	0	0	0	0	503	515	0	523	38	2	
11	0	0	0	0	507	516	0	532	38	2	
12	0	0	0	0	508	519	0	527	38	2	
13	0	0	0	0	505	520	0	530	38	2	
14	0	0	0	0	509	523	0	523	39	3	
15	0	0	0	0	508	523	0	520	38	3	
0	0	0	0	0	504	522	0	539	38	3	
1	0	0	0	0	507	522	0	540	38	2	
2	0	0	0	0	515	521	0	532	38	2	
3	0	0	0	0	508	523	0	521	38	2	
4	0	0	0	0	505	521	0	512	38	2	
5	0	0	0	0	508	520	0	504	38	2	
6	0	0	0	0	509	518	0	499	39	2	
7	0	0	0	0	509	516	0	495	38	3	
8	0	0	0	0	517	516	0	492	38	3	
9	0	0	0	0	512	514	0	493	38	3	
10	0	0	0	0	505	513	0	519	38	2	
11	0	0	0	0	508	511	0	526	38	2	
12	0	0	0	0	510	510	0	521	38	2	
13	0	0	0	0	503	512	0	514	38	2	
14	0	0	0	0	505	514	0	508	39	2	
15	0	0	0	0	504	515	0	504	38	3	
0	0	0	0	0	504	515	0	518	38	3	
1	0	0	0	0	504	514	0	527	38	3	
2	0	0	0	0	510	513	0	523	38	2	
3	0	0	0	0	508	513	0	517	38	2	
4	0	0	0	0	505	513	0	508	38	2	
5	0	0	0	0	500	513	0	499	38	2	
6	0	0	0	0	509	514	0	492	39	2	
7	0	0	0	0	511	516	0	489	38	3	
8	0	0	0	0	509	515	0	484	39	3	
9	0	0	0	0	507	515	0	483	38	3	
10	0	0	0	0	507	515	0	505	38	2	
11	0	0	0	0	505	516	0	516	38	2	
12	0	0	0	0	504	515	0	515	38	2	
13	0	0	0	0	506	515	0	510	39	2	
14	0	0	0	0	514	515	0	505	39	2	
15	0	0	0	0	503	515	0	510	38	2	
0	0	0	0	0	511	514	0	505	38	3	
1	0	0	0	0	512	516	0	513	38	3	
2	0	0	0	0	504	515	0	532	38	3	
3	0	0	0	0	507	515	0	538	39	2	
4	0	0	0	0	501	515	0	553	38	2	
5	0	0	0	0	508	515	0	557	39	2	
6	0	0	0	0	509	516	0	560	39	2	
7	0	0	0	0	510	515	0	563	39	2	
8	0	0	0	0	508	514	0	549	39	3	
9	0	0	0	0	507	512	0	532	39	3	
10	0	0	0	0	502	511	0	514	38	3	
11	0	0	0	0	504	513	0	507	39	2	
12	0	0	0	0	518	513	0	496	39	2	
13	0	0	0	0	513	511	0	491	39	2	
14	0	0	0	0	500	509	0	486	39	2	
15	0	0	0	0	513	509	0	481	39	2	
0	0	0	0	0	509	511	0	494	39	2	
1	0	0	0	0	508	512	0	512	39	3	
2	0	0	0	0	503	512	0	518	38	3	
3	0	0	0	0	502	512	0	514	39	3	
4	0	0	0	0	511	511	0	506	38	2	
5	0	0	0	0	509	511	0	501	39	2	
6	0	0	0	0	509	511	0	496	39	2	
7	0	0	0	0	503	510	0	496	38	2	
8	0	0	0	0	503	511	0	493	38	2	
9	0	0	0	0	509	509	0	490	38	2	
10	0	0	0	0	509	510	0	501	38	3	
11	0	0	0	0	507	511	0	526	38	3	
12	0	0	0	0	509	512	0	537	38	2	
13	0	0	0	0	506	512	0	555	38	2	
14	0	0	0	0	513	513	0	557	39	2	
15	0	0	0	0	512	515	0	551	38	2	
0	0	0	0	0	505	515	0	542	38	2	
1	0	0	0	0	507	515	0	529	38	3	
2	0	0	0	0	505	515	0	518	38	3	
3	0	0	0	0	504	516	0	509	38	3	
4	0	0	0	0	509	518	0	503	38	2	
5	0	0	0	0	504	518	0	499	38	2	
6	0	0	0	0	512	519	0	497	39	2	
7	0	0	0	0	508	519	0	495	38	2	
8	0	0	0	0	503	518	0	493	38	2	
9	0	0	0	0	504	519	0	493	38	3	
10	0	0	0	0	508	520	0	490	38	3	
11	0	0	0	0	510	521	0	491	38	3	
12	0	0	0	0	504	521	0	491	38	2	
13	0	0	0	0	507	522	0	510	38	2	
14	0	0	0	0	507	525	0	532	39	2	
15	0	0	0	0	509	528	0	554	38	2	
0	0	0	0	0	506	531	0	559	38	2	
1	0	0	0	0	511	532	0	557	38	2	
2	0	0	0	0	505	532	0	542	38	3	
3	0	0	0	0	504	535	0	529	38	3	
4	0	0	0	0	502	536	0	517	38	3	
5	0	0	0	0	500	538	0	508	38	2	
6	0	0	0	0	508	538	0	505	39	2	
7	0	0	0	0	518	536	0	499	38	2	
8	0	0	0	0	511	536	0	500	38	2	
9	0	0	0	0	502	535	0	501	38	2	
10	0	0	0	0	509	536	0	529	38	3	
11	0	0	0	0	512	536	0	539	38	3	
12	0	0	0	0	512	536	0	534	38	3	
13	0	0	0	0	506	536	0	527	38	3	
14	0	0	0	0	507	535	0	526	39	2	
15	0	0	0	0	506	533	0	528	38	2	
0	0	0	0	0	507	531	0	523	38	2	
1	0	0	0	0	512	530	0	540	38	2	
2	0	0	0	0	502	531	0	551	38	3	
3	0	0	0	0	510	530	0	549	38	3	
4	0	0	0	0	512	530	0	538	38	3	
5	0	0	0	0	505	531	0	526	38	3	
6	0	0	0	0	505	531	0	516	39	2	
7	0	0	0	0	507	532	0	511	38	2	
8	0	0	0	0	508	532	0	525	38	2	
9	0	0	0	0	510	531	0	530	38	2	
10	0	0	0	0	507	530	0	536	38	2	
11	0	0	0	0	509	530	0	530	38	3	
12	0	0	0	0	505	533	0	523	38	3	
13	0	0	0	0	505	533	0	517	38	3	
14	0	0	0	0	508	532	0	511	39	2	
15	0	0	0	0	509	532	0	524	38	2	
0	0	0	0	0	510	532	0	500	38	2	
1	0	0	0	0	506	531	0	500	38	2	
2	0	0	0	0	508	531	0	504	38	2	
3	0	0	0	0	505	531	0	529	38	3	
4	0	0	0	0	508	532	0	538	39	3	
5	0	0	0	0	505	534	0	532	39	3	
6	0	0	0	0	513	536	0	549	39	2	
7	0	0	0	0	504	537	0	549	39	2	
8	0	0	0	0	504	536	0	546	38	2	
9	0	0	0	0	510	536	0	535	39	2	
10	0	0	0	0	512	534	0	532	38	2	
11	0	0	0	0	508	535	0	525	38	3	
12	0	0	0	0	503	534	0	515	39	3	
13	0	0	0	0	503	532	0	510	39	3	
14	0	0	0	0	504	530	0	502	39	3	
15	0	0	0	0	508	527	0	496	38	2	
0	0	0	0	0	508	527	0	493	39	2	
1	0	0	0	0	509	526	0	496	39	2	
2	0	0	0	0	512	524	0	521	38	2	
3	0	0	0	0	510	524	0	530	39	2	
4	0	0	0	0	513	523	0	526	39	3	
5	0	0	0	0	510	524	0	518	39	3	
6	0	0	0	0	511	523	0	513	39	3	
7	0	0	0	0	508	521	0	508	39	2	
8	0	0	0	0	503	519	0	522	38	2	
9	0	0	0	0	505	516	0	532	39	2	
10	0	0	0	0	504	515	0	526	38	2	
11	0	0	0	0	505	512	0	519	39	2	
12	0	0	0	0	509	508	0	511	39	3	
13	0	0	0	0	507	506	0	504	39	3	
14	0	0	0	0	509	505	0	495	39	3	
15	0	0	0	0	510	505	0	492	39	3	
0	0	0	0	0	511	504	0	487	39	2	
1	0	0	0	0	507	504	0	484	38	2	
2	0	0	0	0	514	502	0	513	38	2	
3	0	0	0	0	504	500	0	517	38	2	
4	0	0	0	0	504	500	0	515	39	3	
5	0	0	0	0	516	500	0	509	39	3	
6	0	0	0	0	502	499	0	504	39	3	
7	0	0	0	0	503	497	0	511	39	3	
8	0	0	0	0	509	496	0	507	39	2	
9	0	0	0	0	503	495	0	521	38	2	
10	0	0	0	0	498	495	0	521	38	2	
11	0	0	0	0	508	496	0	518	38	2	
12	0	0	0	0	504	497	0	522	38	3	
13	0	0	0	0	509	496	0	516	39	3	
14	0	0	0	0	508	495	0	513	39	3	
15	0	0	0	0	514	494	0	504	39	3	
0	0	0	0	0	513	492	0	499	38	2	
1	0	0	0	0	510	493	0	497	38	2	
2	0	0	0	0	506	492	0	492	38	2	
3	0	0	0	0	504	491	0	503	38	2	
4	0	0	0	0	504	489	0	524	38	2	
5	0	0	0	0	504	488	0	529	38	3	
6	0	0	0	0	514	489	0	523	39	3	
7	0	0	0	0	503	488	0	531	38	3	
8	0	0	0	0	509	489	0	539	38	3	
9	0	0	0	0	505	487	0	529	38	2	
10	0	0	0	0	504	487	0	519	38	2	
11	0	0	0	0	515	487	0	509	38	2	
12	0	0	0	0	515	487	0	502	38	2	
13	0	0	0	0	505	487	0	498	38	3	
14	0	0	0	0	507	485	0	493	39	3	
15	0	0	0	0	504	484	0	492	38	3	
0	0	0	0	0	510	484	0	489	38	3	
1	0	0	0	0	495	485	0	523	38	2	
2	0	0	0	0	500	486	0	528	38	2	
3	0	0	0	0	505	486	0	529	38	2	
4	0	0	0	0	509	486	0	524	38	2	
5	0	0	0	0	519	486	0	515	38	3	
6	0	0	0	0	509	485	0	505	39	3	
7	0	0	0	0	506	485	0	511	38	3	
8	0	0	0	0	502	484	0	525	38	3	
9	0	0	0	0	504	483	0	519	38	2	
10	0	0	0	0	514	481	0	512	38	2	
11	0	0	0	0	507	479	0	516	38	2	
12	0	0	0	0	513	478	0	513	38	2	
13	0	0	0	0	508	477	0	507	38	2	
14	0	0	0	0	504	478	0	501	39	3	
15	0	0	0	0	505	480	0	496	38	3	
0	0	0	0	0	514	480	0	489	38	3	
1	0	0	0	0	509	482	0	486	38	3	
2	0	0	0	0	509	483	0	494	38	2	
3	0	0	0	0	498	485	0	518	38	2	
4	0	0	0	0	510	487	0	531	38	2	
5	0	0	0	0	509	490	0	529	38	2	
6	0	0	0	0	515	494	0	521	39	3	
7	0	0	0	0	505	495	0	524	38	3	
8	0	0	0	0	512	495	0	508	38	3	
9	0	0	0	0	510	494	0	523	38	3	
10	0	0	0	0	510	494	0	531	38	2	
11	0	0	0	0	501	495	0	526	38	2	
12	0	0	0	0	510	494	0	535	38	2	
13	0	0	0	0	504	492	0	510	39	2	
14	0	0	0	0	503	492	0	504	39	3	
15	0	0	0	0	512	491	0	498	38	3	
0	0	0	0	0	500	489	0	505	38	3	
1	0	0	0	0	511	488	0	524	38	3	
2	0	0	0	0	510	489	0	528	38	2	
3	0	0	0	0	508	490	0	525	39	2	
4	0	0	0	0	507	490	0	517	39	2	
5	0	0	0	0	503	491	0	513	39	2	
6	0	0	0	0	510	488	0	507	39	2	
7	0	0	0	0	510	488	0	504	39	3	
8	0	0	0	0	502	488	0	504	38	3	
9	0	0	0	0	512	485	0	498	38	3	
10	0	0	0	0	508	482	0	509	38	2	
11	0	0	0	0	501	481	0	532	39	2	
12	0	0	0	0	504	479	0	539	39	2	
13	0	0	0	0	509	477	0	534	39	2	
14	0	0	0	0	510	475	0	544	39	2	
15	0	0	0	0	514	474	0	552	39	3	
0	0	0	0	0	505	472	0	549	39	3	
1	0	0	0	0	511	472	0	547	38	3	
2	0	0	0	0	502	471	0	540	38	3	
3	0	0	0	0	505	470	0	529	38	2	
4	0	0	0	0	505	471	0	519	39	2	
5	0	0	0	0	511	471	0	512	39	2	
6	0	0	0	0	506	473	0	508	39	2	
7	0	0	0	0	499	476	0	504	38	2	
8	0	0	0	0	509	481	0	499	38	3	
9	0	0	0	0	514	489	0	499	39	3	
10	0	0	0	0	508	496	0	498	38	3	
11	0	0	0	0	506	505	0	497	39	2	
12	0	0	0	0	513	516	0	495	39	2	
13	0	0	0	0	508	525	0	492	39	2	
14	0	0	0	0	505	537	0	507	39	2	
15	0	0	0	0	503	551	0	533	39	2	
0	0	0	0	0	503	567	0	542	38	3	
1	0	0	0	0	504	581	0	561	38	3	
2	0	0	0	0	515	597	0	566	38	3	
3	0	0	0	0	503	615	0	557	38	2	
4	0	0	0	0	506	634	0	545	38	2	
5	0	0	0	0	500	656	0	533	38	2	
6	0	0	0	0	510	680	0	524	39	2	
7	0	0	0	0	513	706	0	516	38	2	
8	0	0	0	0	504	734	0	524	38	2	
9	0	0	0	0	509	760	0	540	38	3	
10	0	0	0	0	515	786	0	542	38	3	
11	0	0	0	0	508	809	0	532	38	2	
12	0	0	0	0	509	826	0	523	38	2	
13	0	0	0	0	506	837	0	527	38	2	
14	0	0	0	0	512	838	0	527	39	2	
15	0	0	0	0	510	835	0	527	38	2	
0	0	0	0	0	503	826	0	543	38	2	
1	0	0	0	0	505	811	0	558	38	3	
2	0	0	0	0	512	793	0	551	38	3	
3	0	0	0	0	505	765	0	540	38	3	
4	0	0	0	0	506	731	0	530	38	2	
5	0	0	0	0	511	700	0	521	39	2	
6	0	0	0	0	505	669	0	512	39	2	
7	0	0	0	0	500	643	0	508	38	2	
8	0	0	0	0	510	614	0	505	38	2	
9	0	0	0	0	504	589	0	501	38	3	
10	0	0	0	0	501	567	0	520	38	3	
11	0	0	0	0	511	546	0	534	38	3	
12	0	0	0	0	512	529	0	535	38	2	
13	0	0	0	0	507	513	0	529	38	2	
14	0	0	0	0	497	499	0	522	39	2	
15	0	0	0	0	510	485	0	519	38	2	
0	0	0	0	0	516	473	0	528	38	2	
1	0	0	0	0	502	462	0	540	38	2	
2	0	0	0	0	508	451	0	540	38	3	
3	0	0	0	0	505	440	0	532	38	3	
4	0	0	0	0	508	431	0	541	38	3	
5	0	0	0	0	510	421	0	519	38	2	
6	0	0	0	0	506	417	0	514	39	2	
7	0	0	0	0	505	412	0	512	38	2	
8	0	0	0	0	515	404	0	509	38	2	
9	0	0	0	0	518	398	0	509	38	2	
10	0	0	0	0	508	393	0	523	38	3	
11	0	0	0	0	502	390	0	557	38	3	
12	0	0	0	0	512	386	0	542	38	3	
13	0	0	0	0	505	383	0	540	38	2	
14	0	0	0	0	507	381	0	552	39	2	
15	0	0	0	0	505	377	0	552	38	2	
0	0	0	0	0	509	377	0	551	38	2	
1	0	0	0	0	505	377	0	544	38	2	
2	0	0	0	0	504	377	0	536	38	3	
3	0	0	0	0	508	380	0	521	38	3	
4	0	0	0	0	515	382	0	509	38	3	
5	0	0	0	0	510	387	0	505	39	3	
6	0	0	0	0	504	391	0	499	39	2	
7	0	0	0	0	506	396	0	502	38	2	
8	0	0	0	0	508	400	0	496	38	2	
9	0	0	0	0	508	407	0	492	38	2	
10	0	0	0	0	510	413	0	494	38	3	
11	0	0	0	0	504	417	0	491	38	3	
12	0	0	0	0	504	423	0	495	38	3	
13	0	0	0	0	499	427	0	494	38	3	
14	0	0	0	0	509	431	0	497	39	2	
15	0	0	0	0	514	436	0	493	38	2	
0	0	0	0	0	505	439	0	492	38	2	
1	0	0	0	0	508	442	0	489	38	2	
2	0	0	0	0	505	444	0	487	38	2	
3	0	0	0	0	509	446	0	487	38	3	
4	0	0	0	0	510	449	0	490	38	3	
5	0	0	0	0	512	453	0	491	39	3	
6	0	0	0	0	507	455	0	494	39	2	
7	0	0	0	0	505	457	0	494	38	2	
8	0	0	0	0	510	458	0	490	38	2	
9	0	0	0	0	505	460	0	492	38	2	
10	0	0	0	0	505	460	0	489	38	2	
11	0	0	0	0	506	462	0	496	39	3	
12	0	0	0	0	511	464	0	522	38	3	
13	0	0	0	0	512	464	0	540	39	3	
14	0	0	0	0	504	466	0	556	39	2	
15	0	0	0	0	511	468	0	568	38	2	
0	0	0	0	0	509	472	0	562	38	2	
1	0	0	0	0	502	474	0	582	38	2	
2	0	0	0	0	507	475	0	575	38	2	
3	0	0	0	0	515	478	0	575	38	3	
4	0	0	0	0	504	479	0	582	38	3	
5	0	0	0	0	512	480	0	573	38	3	
6	0	0	0	0	513	479	0	579	39	3	
7	0	0	0	0	504	481	0	574	39	2	
8	0	0	0	0	507	483	0	583	38	2	
9	0	0	0	0	505	483	0	574	38	2	
10	0	0	0	0	505	485	0	563	38	2	
11	0	0	0	0	509	487	0	545	39	3	
12	0	0	0	0	504	488	0	527	38	3	
13	0	0	0	0	510	489	0	516	39	3	
14	0	0	0	0	505	488	0	505	39	3	
15	0	0	0	0	509	487	0	502	38	2	
0	0	0	0	0	502	489	0	497	38	2	
1	0	0	0	0	512	489	0	491	38	2	
2	0	0	0	0	511	489	0	503	38	2	
3	0	0	0	0	506	488	0	525	38	2	
4	0	0	0	0	502	487	0	533	38	3	
5	0	0	0	0	505	487	0	528	39	3	
6	0	0	0	0	504	488	0	536	39	3	
7	0	0	0	0	515	488	0	545	38	3	
8	0	0	0	0	502	487	0	541	38	2	
9	0	0	0	0	497	486	0	540	38	2	
10	0	0	0	0	506	486	0	529	38	2	
11	0	0	0	0	513	485	0	528	38	2	
12	0	0	0	0	513	487	0	522	38	3	
13	0	0	0	0	510	488	0	513	38	3	
14	0	0	0	0	511	489	0	513	39	3	
15	0	0	0	0	508	493	0	499	38	3	
0	0	0	0	0	511	495	0	495	38	2	
1	0	0	0	0	505	497	0	491	38	2	
2	0	0	0	0	502	497	0	489	38	2	
3	0	0	0	0	502	496	0	489	38	2	
4	0	0	0	0	515	496	0	487	38	3	
5	0	0	0	0	513	495	0	484	38	3	
6	0	0	0	0	507	496	0	485	39	3	
7	0	0	0	0	504	496	0	492	38	3	
8	0	0	0	0	510	497	0	515	38	2	
9	0	0	0	0	507	497	0	526	38	2	
10	0	0	0	0	502	496	0	540	38	2	
11	0	0	0	0	513	496	0	548	38	2	
12	0	0	0	0	504	494	0	540	38	2	
13	0	0	0	0	504	493	0	527	38	3	
14	0	0	0	0	512	494	0	517	39	3	
15	0	0	0	0	504	495	0	502	38	3	
0	0	0	0	0	506	496	0	506	38	3	
1	0	0	0	0	506	497	0	518	38	2	
2	0	0	0	0	508	497	0	518	38	2	
3	0	0	0	0	507	498	0	529	38	2	
4	0	0	0	0	509	499	0	503	38	2	
5	0	0	0	0	505	500	0	499	38	3	
6	0	0	0	0	508	500	0	492	39	3	
7	0	0	0	0	506	501	0	490	38	3	
8	0	0	0	0	510	502	0	487	38	3	
9	0	0	0	0	509	501	0	482	38	2	
10	0	0	0	0	510	501	0	496	38	2	
11	0	0	0	0	510	499	0	519	38	2	
12	0	0	0	0	504	499	0	527	38	2	
13	0	0	0	0	504	500	0	522	38	3	
14	0	0	0	0	501	500	0	531	39	3	
15	0	0	0	0	506	502	0	538	38	3	
0	0	0	0	0	510	502	0	534	38	3	
1	0	0	0	0	514	503	0	531	38	2	
2	0	0	0	0	506	504	0	520	38	2	
3	0	0	0	0	507	502	0	509	38	2	
4	0	0	0	0	513	501	0	497	38	2	
5	0	0	0	0	504	500	0	489	39	3	
6	0	0	0	0	506	500	0	485	39	3	
7	0	0	0	0	510	502	0	481	38	3	
8	0	0	0	0	507	503	0	477	38	3	
9	0	0	0	0	497	505	0	477	38	3	
10	0	0	0	0	503	505	0	473	38	2	
11	0	0	0	0	501	506	0	475	38	2	
12	0	0	0	0	508	508	0	477	38	2	
13	0	0	0	0	505	510	0	470	39	2	
14	0	0	0	0	507	512	0	484	39	3	
15	0	0	0	0	506	512	0	511	39	3	
0	0	0	0	0	512	510	0	520	38	3	
1	0	0	0	0	505	507	0	537	38	3	
2	0	0	0	0	515	504	0	543	38	2	
3	0	0	0	0	507	505	0	534	38	2	
4	0	0	0	0	509	507	0	520	38	2	
5	0	0	0	0	510	508	0	510	39	2	
6	0	0	0	0	504	508	0	500	39	3	
7	0	0	0	0	510	508	0	490	39	3	
8	0	0	0	0	507	509	0	497	38	3	
9	0	0	0	0	506	511	0	511	38	3	
10	0	0	0	0	500	511	0	515	38	2	
11	0	0	0	0	505	511	0	508	39	2	
12	0	0	0	0	509	512	0	513	38	2	
13	0	0	0	0	508	515	0	510	38	2	
14	0	0	0	0	513	517	0	500	39	2	
15	0	0	0	0	507	517	0	497	39	3	
0	0	0	0	0	501	516	0	489	38	3	
1	0	0	0	0	511	515	0	483	38	3	
2	0	0	0	0	510	517	0	482	38	3	
3	0	0	0	0	508	518	0	485	39	2	
4	0	0	0	0	506	517	0	525	38	2	
5	0	0	0	0	516	517	0	523	39	2	
6	0	0	0	0	513	517	0	520	39	2	
7	0	0	0	0	499	518	0	522	39	3	
8	0	0	0	0	499	518	0	532	39	3	
9	0	0	0	0	507	519	0	527	38	3	
10	0	0	0	0	510	520	0	516	38	3	
11	0	0	0	0	508	521	0	506	38	2	
12	0	0	0	0	509	523	0	498	38	2	
13	0	0	0	0	503	524	0	491	38	2	
14	0	0	0	0	508	525	0	488	39	2	
15	0	0	0	0	505	527	0	486	38	2	
0	0	0	0	0	512	528	0	488	38	3	
1	0	0	0	0	507	531	0	495	38	3	
2	0	0	0	0	508	532	0	521	38	3	
3	0	0	0	0	510	534	0	530	38	2	
4	0	0	0	0	499	536	0	524	38	2	
5	0	0	0	0	506	537	0	513	39	2	
6	0	0	0	0	511	538	0	516	39	2	
7	0	0	0	0	510	538	0	532	38	2	
8	0	0	0	0	509	538	0	532	38	3	
9	0	0	0	0	508	537	0	546	38	3	
10	0	0	0	0	517	537	0	550	38	3	
11	0	0	0	0	512	540	0	540	39	3	
12	0	0	0	0	513	540	0	534	38	2	
13	0	0	0	0	501	543	0	531	39	2	
14	0	0	0	0	504	544	0	521	39	2	
15	0	0	0	0	512	546	0	509	38	2	
0	0	0	0	0	506	547	0	515	38	3	
1	0	0	0	0	510	549	0	532	38	3	
2	0	0	0	0	500	550	0	534	38	3	
3	0	0	0	0	499	551	0	528	38	3	
4	0	0	0	0	516	552	0	516	38	2	
5	0	0	0	0	507	554	0	510	38	2	
6	0	0	0	0	516	555	0	503	39	2	
7	0	0	0	0	499	557	0	496	38	2	
8	0	0	0	0	504	561	0	492	38	2	
9	0	0	0	0	508	561	0	485	38	3	
10	0	0	0	0	502	561	0	495	38	3	
11	0	0	0	0	505	561	0	518	38	3	
12	0	0	0	0	506	561	0	527	38	2	
13	0	0	0	0	508	561	0	547	39	2	
14	0	0	0	0	507	562	0	546	39	2	
15	0	0	0	0	510	563	0	532	38	2	
0	0	0	0	0	513	560	0	519	38	2	
1	0	0	0	0	509	559	0	505	38	3	
2	0	0	0	0	508	560	0	497	38	3	
3	0	0	0	0	504	560	0	487	38	3	
4	0	0	0	0	503	562	0	486	38	2	
5	0	0	0	0	511	563	0	485	39	2	
6	0	0	0	0	507	563	0	486	39	2	
7	0	0	0	0	513	566	0	489	38	2	
8	0	0	0	0	508	567	0	484	39	2	
9	0	0	0	0	511	568	0	495	38	2	
10	0	0	0	0	496	568	0	522	38	3	
11	0	0	0	0	505	570	0	531	38	3	
12	0	0	0	0	506	574	0	530	38	3	
13	0	0	0	0	506	575	0	519	38	2	
14	0	0	0	0	509	574	0	521	39	2	
15	0	0	0	0	504	571	0	519	38	2	
0	0	0	0	0	506	571	0	517	38	2	
1	0	0	0	0	513	570	0	534	38	2	
2	0	0	0	0	505	572	0	541	38	3	
3	0	0	0	0	512	573	0	534	39	3	
4	0	0	0	0	510	573	0	532	38	3	
5	0	0	0	0	501	572	0	518	39	2	
6	0	0	0	0	514	573	0	511	39	2	
7	0	0	0	0	508	572	0	504	38	2	
8	0	0	0	0	510	572	0	512	38	2	
9	0	0	0	0	502	572	0	529	38	2	
10	0	0	0	0	502	572	0	534	38	3	
11	0	0	0	0	503	571	0	531	39	3	
12	0	0	0	0	506	571	0	520	38	3	
13	0	0	0	0	516	571	0	513	38	2	
14	0	0	0	0	515	571	0	508	39	2	
15	0	0	0	0	506	572	0	505	39	2	
0	0	0	0	0	510	573	0	504	38	2	
1	0	0	0	0	508	571	0	500	38	2	
2	0	0	0	0	511	571	0	515	38	3	
3	0	0	0	0	498	571	0	538	38	3	
4	0	0	0	0	499	570	0	545	38	3	
5	0	0	0	0	505	566	0	542	38	3	
6	0	0	0	0	509	563	0	550	39	2	
7	0	0	0	0	503	561	0	571	39	2	
8	0	0	0	0	507	558	0	545	39	2	
9	0	0	0	0	510	555	0	537	38	2	
10	0	0	0	0	503	551	0	534	38	2	
11	0	0	0	0	508	547	0	524	38	3	
12	0	0	0	0	511	545	0	517	38	3	
13	0	0	0	0	507	541	0	510	38	3	
14	0	0	0	0	501	537	0	505	39	2	
15	0	0	0	0	508	534	0	502	38	2	
0	0	0	0	0	513	531	0	499	38	2	
1	0	0	0	0	513	530	0	499	38	2	
2	0	0	0	0	507	527	0	494	38	2	
3	0	0	0	0	508	526	0	496	38	3	
4	0	0	0	0	504	526	0	494	38	3	
5	0	0	0	0	508	523	0	509	38	3	
6	0	0	0	0	505	520	0	506	39	2	
7	0	0	0	0	508	518	0	528	38	2	
8	0	0	0	0	506	514	0	536	38	2	
9	0	0	0	0	508	510	0	553	38	2	
10	0	0	0	0	511	505	0	563	38	2	
11	0	0	0	0	513	504	0	555	38	3	
12	0	0	0	0	507	500	0	542	38	3	
13	0	0	0	0	506	495	0	530	38	3	
14	0	0	0	0	506	490	0	521	39	3	
15	0	0	0	0	512	484	0	512	38	2	
0	0	0	0	0	505	481	0	519	38	2	
1	0	0	0	0	506	478	0	533	38	2	
2	0	0	0	0	504	475	0	537	38	2	
3	0	0	0	0	503	470	0	527	38	3	
4	0	0	0	0	503	465	0	517	38	3	
5	0	0	0	0	507	462	0	514	39	3	
6	0	0	0	0	501	457	0	508	39	3	
7	0	0	0	0	507	454	0	505	38	2	
8	0	0	0	0	505	452	0	503	38	2	
9	0	0	0	0	508	448	0	501	38	2	
10	0	0	0	0	509	447	0	511	38	2	
11	0	0	0	0	508	445	0	535	38	2	
12	0	0	0	0	504	443	0	546	38	3	
13	0	0	0	0	503	439	0	564	38	3	
14	0	0	0	0	518	438	0	566	39	3	
15	0	0	0	0	501	438	0	561	38	3	
0	0	0	0	0	502	437	0	551	38	2	
1	0	0	0	0	510	435	0	539	38	2	
2	0	0	0	0	516	433	0	528	38	2	
3	0	0	0	0	512	432	0	518	38	2	
4	0	0	0	0	508	432	0	513	38	3	
5	0	0	0	0	515	431	0	510	39	3	
6	0	0	0	0	508	429	0	505	39	3	
7	0	0	0	0	509	428	0	504	39	3	
8	0	0	0	0	509	427	0	500	38	2	
9	0	0	0	0	507	428	0	502	38	2	
10	0	0	0	0	503	428	0	501	38	2	
11	0	0	0	0	501	429	0	501	39	2	
12	0	0	0	0	513	428	0	502	39	2	
13	0	0	0	0	512	427	0	519	39	3	
14	0	0	0	0	506	427	0	541	39	3	
15	0	0	0	0	510	426	0	565	39	3	
0	0	0	0	0	504	425	0	564	39	2	
1	0	0	0	0	508	423	0	560	39	2	
2	0	0	0	0	513	423	0	545	38	2	
3	0	0	0	0	509	425	0	531	39	2	
4	0	0	0	0	499	427	0	520	38	2	
5	0	0	0	0	500	427	0	511	39	3	
6	0	0	0	0	515	428	0	508	39	3	
7	0	0	0	0	511	428	0	496	39	3	
8	0	0	0	0	497	430	0	493	39	3	
9	0	0	0	0	501	430	0	489	39	2	
10	0	0	0	0	511	429	0	492	38	2	
11	0	0	0	0	505	430	0	528	38	2	
12	0	0	0	0	510	430	0	528	39	2	
13	0	0	0	0	506	432	0	542	39	3	
14	0	0	0	0	508	432	0	560	39	3	
15	0	0	0	0	508	432	0	558	38	3	
0	0	0	0	0	509	432	0	557	39	3	
1	0	0	0	0	506	432	0	540	38	2	
2	0	0	0	0	504	433	0	527	38	2	
3	0	0	0	0	513	435	0	516	38	2	
4	0	0	0	0	508	434	0	508	38	2	
5	0	0	0	0	508	435	0	504	38	3	
6	0	0	0	0	513	437	0	497	39	3	
7	0	0	0	0	511	440	0	496	38	3	
8	0	0	0	0	507	441	0	494	38	3	
9	0	0	0	0	503	442	0	492	38	2	
10	0	0	0	0	512	443	0	491	38	2	
11	0	0	0	0	507	444	0	487	38	2	
12	0	0	0	0	506	445	0	490	38	2	
13	0	0	0	0	510	445	0	494	38	3	
14	0	0	0	0	509	447	0	519	39	3	
15	0	0	0	0	511	448	0	526	38	3	
0	0	0	0	0	512	448	0	539	38	3	
1	0	0	0	0	510	447	0	551	38	3	
2	0	0	0	0	508	446	0	544	38	2	
3	0	0	0	0	509	447	0	535	38	2	
4	0	0	0	0	503	451	0	523	38	2	
5	0	0	0	0	504	453	0	511	39	3	
6	0	0	0	0	505	455	0	509	39	3	
7	0	0	0	0	502	456	0	502	39	3	
8	0	0	0	0	511	457	0	499	38	3	
9	0	0	0	0	508	458	0	496	38	3	
10	0	0	0	0	508	458	0	511	38	2	
11	0	0	0	0	515	459	0	532	38	2	
12	0	0	0	0	507	458	0	529	38	2	
13	0	0	0	0	507	458	0	527	38	2	
14	0	0	0	0	511	457	0	543	39	3	
15	0	0	0	0	502	458	0	545	38	3	
0	0	0	0	0	503	459	0	540	38	3	
1	0	0	0	0	508	459	0	525	38	3	
2	0	0	0	0	503	460	0	513	38	2	
3	0	0	0	0	505	460	0	505	38	2	
4	0	0	0	0	505	461	0	496	38	2	
5	0	0	0	0	512	463	0	509	39	2	
6	0	0	0	0	515	464	0	486	39	2	
7	0	0	0	0	503	465	0	484	38	3	
8	0	0	0	0	508	468	0	484	38	3	
9	0	0	0	0	507	470	0	481	38	3	
10	0	0	0	0	508	474	0	497	38	3	
11	0	0	0	0	499	477	0	479	38	2	
12	0	0	0	0	508	480	0	482	38	2	
13	0	0	0	0	511	481	0	506	38	2	
14	0	0	0	0	512	481	0	520	39	2	
15	0	0	0	0	506	480	0	531	38	3	
0	0	0	0	0	515	478	0	545	38	3	
1	0	0	0	0	505	477	0	539	38	3	
2	0	0	0	0	505	476	0	526	38	3	
3	0	0	0	0	505	476	0	510	38	2	
4	0	0	0	0	512	479	0	504	38	2	
5	0	0	0	0	509	479	0	496	38	2	
6	0	0	0	0	503	480	0	495	39	2	
7	0	0	0	0	513	482	0	490	38	3	
8	0	0	0	0	508	483	0	487	38	3	
9	0	0	0	0	504	486	0	501	38	3	
10	0	0	0	0	512	489	0	526	38	3	
11	0	0	0	0	506	491	0	536	38	2	
12	0	0	0	0	506	492	0	528	39	2	
13	0	0	0	0	505	492	0	516	38	2	
14	0	0	0	0	511	493	0	518	39	2	
15	0	0	0	0	510	494	0	515	38	2	
0	0	0	0	0	508	496	0	515	38	3	
1	0	0	0	0	499	497	0	531	38	3	
2	0	0	0	0	507	500	0	540	38	3	
3	0	0	0	0	512	503	0	532	39	3	
4	0	0	0	0	503	504	0	522	38	2	
5	0	0	0	0	510	504	0	513	38	2	
6	0	0	0	0	506	505	0	506	39	2	
7	0	0	0	0	512	507	0	511	38	2	
8	0	0	0	0	504	507	0	504	38	3	
9	0	0	0	0	500	507	0	520	38	3	
10	0	0	0	0	507	506	0	522	38	3	
11	0	0	0	0	512	507	0	516	39	2	
12	0	0	0	0	509	506	0	508	38	2	
13	0	0	0	0	505	506	0	503	39	2	
14	0	0	0	0	511	506	0	500	39	2	
15	0	0	0	0	508	507	0	494	39	2	
0	0	0	0	0	507	510	0	492	38	2	
1	0	0	0	0	505	510	0	490	38	3	
2	0	0	0	0	510	510	0	502	38	3	
3	0	0	0	0	507	510	0	527	39	3	
4	0	0	0	0	509	510	0	533	39	2	
5	0	0	0	0	508	511	0	530	39	2	
6	0	0	0	0	508	512	0	537	39	2	
7	0	0	0	0	508	514	0	540	38	2	
8	0	0	0	0	506	513	0	528	38	2	
9	0	0	0	0	504	513	0	515	38	3	
10	0	0	0	0	504	513	0	526	38	3	
11	0	0	0	0	510	514	0	530	38	3	
12	0	0	0	0	501	515	0	534	38	2	
13	0	0	0	0	512	516	0	537	38	2	
14	0	0	0	0	515	516	0	555	39	2	
15	0	0	0	0	510	517	0	556	38	2	
0	0	0	0	0	506	516	0	542	38	2	
1	0	0	0	0	498	516	0	529	38	3	
2	0	0	0	0	512	516	0	514	38	3	
3	0	0	0	0	505	516	0	504	38	3	
4	0	0	0	0	506	517	0	496	38	3	
5	0	0	0	0	504	515	0	489	38	2	
6	0	0	0	0	510	516	0	485	39	2	
7	0	0	0	0	512	518	0	482	38	2	
8	0	0	0	0	506	520	0	483	38	2	
9	0	0	0	0	510	523	0	479	38	2	
10	0	0	0	0	505	526	0	496	38	3	
11	0	0	0	0	510	527	0	515	38	3	
12	0	0	0	0	507	526	0	521	38	3	
13	0	0	0	0	505	525	0	516	38	2	
14	0	0	0	0	501	524	0	533	39	2	
15	0	0	0	0	506	524	0	535	38	2	
0	0	0	0	0	503	526	0	525	38	2	
1	0	0	0	0	505	524	0	515	38	2	
2	0	0	0	0	497	522	0	505	38	3	
3	0	0	0	0	507	521	0	504	38	3	
4	0	0	0	0	518	521	0	496	38	3	
5	0	0	0	0	509	522	0	494	38	3	
6	0	0	0	0	504	520	0	491	39	2	
7	0	0	0	0	503	519	0	491	38	2	
8	0	0	0	0	508	518	0	492	38	2	
9	0	0	0	0	515	516	0	487	38	2	
10	0	0	0	0	505	516	0	488	38	3	
11	0	0	0	0	504	517	0	488	38	3	
12	0	0	0	0	509	517	0	493	38	3	
13	0	0	0	0	513	517	0	519	38	3	
14	0	0	0	0	513	516	0	535	39	2	
15	0	0	0	0	504	518	0	547	38	2	
0	0	0	0	0	502	519	0	562	38	2	
1	0	0	0	0	510	519	0	556	38	2	
2	0	0	0	0	505	521	0	553	38	2	
3	0	0	0	0	502	523	0	540	38	3	
4	0	0	0	0	515	524	0	530	38	3	
5	0	0	0	0	511	523	0	518	38	3	
6	0	0	0	0	508	521	0	511	39	2	
7	0	0	0	0	507	519	0	508	38	2	
8	0	0	0	0	507	518	0	501	38	2	
9	0	0	0	0	500	518	0	499	38	2	
10	0	0	0	0	505	518	0	497	38	2	
11	0	0	0	0	510	517	0	500	38	3	
12	0	0	0	0	512	518	0	499	38	3	
13	0	0	0	0	510	518	0	495	38	3	
14	0	0	0	0	505	519	0	497	39	2	
15	0	0	0	0	508	519	0	505	38	2	
0	0	0	0	0	505	519	0	530	38	2	
1	0	0	0	0	508	520	0	541	38	2	
2	0	0	0	0	512	520	0	556	38	2	
3	0	0	0	0	507	520	0	570	38	3	
4	0	0	0	0	506	521	0	564	38	3	
5	0	0	0	0	506	520	0	551	38	3	
6	0	0	0	0	507	519	0	537	39	3	
7	0	0	0	0	513	517	0	524	38	2	
8	0	0	0	0	511	516	0	525	38	2	
9	0	0	0	0	504	516	0	537	38	2	
10	0	0	0	0	501	516	0	537	38	2	
11	0	0	0	0	505	515	0	532	38	2	
12	0	0	0	0	511	513	0	521	38	3	
13	0	0	0	0	500	514	0	525	39	3	
14	0	0	0	0	504	513	0	523	39	3	
15	0	0	0	0	505	513	0	523	38	2	
0	0	0	0	0	506	513	0	540	38	2	
1	0	0	0	0	518	513	0	551	38	2	
2	0	0	0	0	507	516	0	545	38	2	
3	0	0	0	0	513	519	0	535	39	2	
4	0	0	0	0	504	520	0	539	39	3	
5	0	0	0	0	503	519	0	518	39	3	
6	0	0	0	0	511	519	0	509	39	3	
7	0	0	0	0	508	519	0	508	39	3	
8	0	0	0	0	507	518	0	504	38	2	
9	0	0	0	0	504	519	0	505	38	2	
10	0	0	0	0	507	519	0	525	38	2	
11	0	0	0	0	514	518	0	541	38	2	
12	0	0	0	0	511	521	0	537	38	3	
13	0	0	0	0	512	520	0	528	38	3	
14	0	0	0	0	513	521	0	519	39	3	
15	0	0	0	0	513	520	0	513	38	3	
0	0	0	0	0	508	519	0	524	38	2	
1	0	0	0	0	502	517	0	537	38	2	
2	0	0	0	0	503	515	0	536	38	2	
3	0	0	0	0	502	515	0	526	38	2	
4	0	0	0	0	503	514	0	517	38	3	
5	0	0	0	0	506	513	0	507	38	3	
6	0	0	0	0	505	513	0	502	39	3	
7	0	0	0	0	510	511	0	501	38	3	
8	0	0	0	0	505	511	0	497	38	2	
9	0	0	0	0	507	510	0	493	38	2	
10	0	0	0	0	512	510	0	509	38	2	
11	0	0	0	0	506	509	0	527	38	2	
12	0	0	0	0	504	507	0	528	38	2	
13	0	0	0	0	506	507	0	525	38	3	
14	0	0	0	0	502	508	0	541	39	3	
15	0	0	0	0	507	510	0	544	38	3	
0	0	0	0	0	505	511	0	535	38	3	
1	0	0	0	0	507	511	0	524	38	2	
2	0	0	0	0	511	510	0	513	38	2	
3	0	0	0	0	515	510	0	508	39	2	
4	0	0	0	0	503	507	0	498	38	2	
5	0	0	0	0	509	507	0	495	39	3	
6	0	0	0	0	509	508	0	490	39	3	
7	0	0	0	0	504	508	0	488	39	3	
8	0	0	0	0	507	510	0	488	38	3	
9	0	0	0	0	507	509	0	484	38	2	
10	0	0	0	0	511	510	0	486	38	2	
11	0	0	0	0	511	509	0	481	39	2	
12	0	0	0	0	504	508	0	481	39	2	
13	0	0	0	0	501	507	0	482	39	3	
14	0	0	0	0	510	506	0	498	39	3	
15	0	0	0	0	505	505	0	518	39	3	
0	0	0	0	0	511	503	0	524	39	3	
1	0	0	0	0	510	503	0	546	39	2	
2	0	0	0	0	504	502	0	545	38	2	
3	0	0	0	0	509	501	0	534	38	2	
4	0	0	0	0	512	502	0	521	38	2	
5	0	0	0	0	504	502	0	508	38	2	
6	0	0	0	0	500	502	0	499	39	3	
7	0	0	0	0	513	503	0	494	39	3	
8	0	0	0	0	504	503	0	508	38	3	
9	0	0	0	0	510	504	0	518	38	3	
10	0	0	0	0	507	504	0	516	38	2	
11	0	0	0	0	501	506	0	513	38	2	
12	0	0	0	0	510	508	0	515	39	2	
13	0	0	0	0	503	509	0	522	38	2	
14	0	0	0	0	504	511	0	516	39	3	
15	0	0	0	0	512	512	0	506	38	3	
0	0	0	0	0	503	513	0	497	38	3	
1	0	0	0	0	503	515	0	491	38	3	
2	0	0	0	0	512	515	0	486	38	2	
3	0	0	0	0	508	517	0	484	38	2	
4	0	0	0	0	501	516	0	490	38	2	
5	0	0	0	0	508	515	0	514	39	2	
6	0	0	0	0	512	514	0	524	39	3	
7	0	0	0	0	518	512	0	520	38	3	
8	0	0	0	0	510	513	0	524	38	3	
9	0	0	0	0	504	513	0	537	38	3	
10	0	0	0	0	506	511	0	532	38	2	
11	0	0	0	0	508	510	0	523	39	2	
12	0	0	0	0	514	508	0	507	38	2	
13	0	0	0	0	503	507	0	496	38	2	
14	0	0	0	0	507	505	0	488	39	2	
15	0	0	0	0	505	504	0	484	39	3	
0	0	0	0	0	506	504	0	481	38	3	
1	0	0	0	0	509	505	0	476	38	3	
2	0	0	0	0	504	507	0	487	38	3	
3	0	0	0	0	511	508	0	512	38	2	
4	0	0	0	0	503	509	0	521	38	2	
5	0	0	0	0	516	509	0	541	39	2	
6	0	0	0	0	513	510	0	541	39	2	
7	0	0	0	0	504	511	0	528	38	3	
8	0	0	0	0	507	510	0	520	38	3	
9	0	0	0	0	504	508	0	517	38	3	
10	0	0	0	0	506	506	0	510	38	3	
11	0	0	0	0	505	504	0	497	38	2	
12	0	0	0	0	507	505	0	492	39	2	
13	0	0	0	0	507	505	0	486	39	2	
14	0	0	0	0	506	509	0	484	39	2	
15	0	0	0	0	508	511	0	482	38	3	
0	0	0	0	0	508	511	0	478	38	3	
1	0	0	0	0	502	512	0	476	38	3	
2	0	0	0	0	512	511	0	476	38	3	
3	0	0	0	0	513	511	0	474	38	2	
4	0	0	0	0	511	511	0	473	38	2	
5	0	0	0	0	504	510	0	491	38	2	
6	0	0	0	0	507	509	0	512	39	2	
7	0	0	0	0	511	507	0	524	39	3	
8	0	0	0	0	505	506	0	538	38	3	
9	0	0	0	0	511	505	0	537	39	3	
10	0	0	0	0	506	504	0	523	38	3	
11	0	0	0	0	511	503	0	512	39	3	
12	0	0	0	0	510	502	0	501	38	2	
13	0	0	0	0	507	502	0	494	39	2	
14	0	0	0	0	507	504	0	490	39	2	
15	0	0	0	0	502	504	0	484	39	2	
0	0	0	0	0	508	505	0	481	38	3	
1	0	0	0	0	511	504	0	484	38	3	
2	0	0	0	0	507	502	0	508	38	3	
3	0	0	0	0	514	502	0	516	38	3	
4	0	0	0	0	513	502	0	510	38	2	
5	0	0	0	0	505	504	0	505	39	2	
6	0	0	0	0	507	505	0	496	39	2	
7	0	0	0	0	506	504	0	493	38	2	
8	0	0	0	0	504	504	0	509	38	3	
9	0	0	0	0	514	502	0	516	38	3	
10	0	0	0	0	499	502	0	530	38	3	
11	0	0	0	0	507	502	0	544	39	3	
12	0	0	0	0	507	500	0	543	38	2	
13	0	0	0	0	509	499	0	532	39	2	
14	0	0	0	0	503	497	0	535	39	2	
15	0	0	0	0	511	497	0	541	38	2	
0	0	0	0	0	506	496	0	532	38	2	
1	0	0	0	0	507	496	0	520	38	3	
2	0	0	0	0	517	497	0	506	38	3	
3	0	0	0	0	502	497	0	492	38	3	
4	0	0	0	0	508	499	0	487	38	2	
5	0	0	0	0	507	502	0	480	38	2	
6	0	0	0	0	507	504	0	481	39	2	
7	0	0	0	0	513	506	0	476	38	2	
8	0	0	0	0	506	507	0	476	38	2	
9	0	0	0	0	512	510	0	474	38	3	
10	0	0	0	0	504	510	0	469	38	3	
11	0	0	0	0	508	512	0	473	38	3	
12	0	0	0	0	503	511	0	472	38	3	
13	0	0	0	0	509	509	0	506	38	2	
14	0	0	0	0	511	508	0	510	39	2	
15	0	0	0	0	507	504	0	520	38	2	
0	0	0	0	0	507	504	0	536	38	2	
1	0	0	0	0	504	502	0	534	38	2	
2	0	0	0	0	510	499	0	520	38	3	
3	0	0	0	0	510	501	0	508	39	3	
4	0	0	0	0	508	501	0	496	38	3	
5	0	0	0	0	513	502	0	490	38	2	
6	0	0	0	0	504	501	0	482	39	2	
7	0	0	0	0	511	502	0	479	38	2	
8	0	0	0	0	503	503	0	488	38	2	
9	0	0	0	0	500	502	0	507	38	2	
10	0	0	0	0	507	499	0	510	38	3	
11	0	0	0	0	510	496	0	505	38	3	
12	0	0	0	0	504	494	0	513	38	3	
13	0	0	0	0	512	494	0	510	38	3	
14	0	0	0	0	505	495	0	502	39	2	
15	0	0	0	0	507	496	0	493	38	2	
0	0	0	0	0	509	499	0	486	38	2	
1	0	0	0	0	515	502	0	481	38	2	
2	0	0	0	0	510	508	0	480	38	3	
3	0	0	0	0	510	509	0	485	38	3	
4	0	0	0	0	504	509	0	506	38	3	
5	0	0	0	0	505	510	0	515	39	2	
6	0	0	0	0	511	509	0	511	39	2	
7	0	0	0	0	505	508	0	519	38	2	
8	0	0	0	0	505	508	0	533	38	2	
9	0	0	0	0	508	506	0	529	38	2	
10	0	0	0	0	505	505	0	522	38	2	
11	0	0	0	0	510	506	0	508	38	3	
12	0	0	0	0	507	508	0	503	38	3	
13	0	0	0	0	500	508	0	496	38	3	
14	0	0	0	0	504	508	0	492	39	2	
15	0	0	0	0	516	508	0	491	38	2	
0	0	0	0	0	511	508	0	485	38	2	
1	0	0	0	0	500	507	0	495	38	2	
2	0	0	0	0	507	507	0	521	38	2	
3	0	0	0	0	509	506	0	528	38	3	
4	0	0	0	0	510	505	0	525	38	3	
5	0	0	0	0	510	505	0	515	38	3	
6	0	0	0	0	510	506	0	512	39	2	
7	0	0	0	0	510	505	0	510	38	2	
8	0	0	0	0	506	504	0	525	38	2	
9	0	0	0	0	504	503	0	528	38	2	
10	0	0	0	0	505	501	0	520	38	2	
11	0	0	0	0	500	501	0	516	38	3	
12	0	0	0	0	512	500	0	516	38	3	
13	0	0	0	0	513	502	0	524	38	3	
14	0	0	0	0	501	503	0	528	39	2	
15	0	0	0	0	507	502	0	521	38	2	
0	0	0	0	0	508	503	0	527	38	2	
1	0	0	0	0	502	504	0	543	38	2	
2	0	0	0	0	511	505	0	543	38	2	
3	0	0	0	0	506	505	0	531	38	2	
4	0	0	0	0	503	505	0	515	38	3	
5	0	0	0	0	502	506	0	507	38	3	
6	0	0	0	0	511	505	0	497	39	3	
7	0	0	0	0	503	504	0	494	38	2	
8	0	0	0	0	511	505	0	487	38	2	
9	0	0	0	0	511	504	0	484	38	2	
10	0	0	0	0	504	506	0	484	38	2	
11	0	0	0	0	513	506	0	482	38	2	
12	0	0	0	0	510	508	0	486	38	3	
13	0	0	0	0	506	511	0	486	38	3	
14	0	0	0	0	512	511	0	484	39	3	
15	0	0	0	0	502	512	0	486	38	2	
0	0	0	0	0	511	510	0	482	38	2	
1	0	0	0	0	502	511	0	480	38	2	
2	0	0	0	0	506	511	0	478	38	2	
3	0	0	0	0	508	511	0	479	38	2	
4	0	0	0	0	509	512	0	482	38	3	
5	0	0	0	0	500	514	0	483	38	3	
6	0	0	0	0	509	516	0	488	39	3	
7	0	0	0	0	510	516	0	492	38	3	
8	0	0	0	0	504	515	0	487	38	2	
9	0	0	0	0	511	518	0	488	38	2	
10	0	0	0	0	510	518	0	487	38	2	
11	0	0	0	0	508	519	0	493	38	2	
12	0	0	0	0	510	518	0	518	38	2	
13	0	0	0	0	508	518	0	534	38	3	
14	0	0	0	0	509	517	0	549	39	3	
15	0	0	0	0	503	517	0	563	38	3	
0	0	0	0	0	509	517	0	560	38	2	
1	0	0	0	0	504	515	0	569	38	2	
2	0	0	0	0	513	512	0	570	38	2	
3	0	0	0	0	510	514	0	571	38	2	
4	0	0	0	0	508	515	0	579	38	2	
5	0	0	0	0	510	518	0	574	38	3	
6	0	0	0	0	500	519	0	578	39	3	
7	0	0	0	0	506	520	0	567	38	3	
8	0	0	0	0	503	521	0	563	38	2	
9	0	0	0	0	502	522	0	567	38	2	
10	0	0	0	0	503	523	0	558	38	2	
11	0	0	0	0	511	526	0	543	39	2	
12	0	0	0	0	517	528	0	525	38	2	
13	0	0	0	0	503	530	0	511	39	3	
14	0	0	0	0	508	531	0	500	39	3	
15	0	0	0	0	508	530	0	496	39	3	
0	0	0	0	0	510	529	0	490	38	3	
1	0	0	0	0	508	527	0	486	39	2	
2	0	0	0	0	508	527	0	499	38	2	
3	0	0	0	0	500	526	0	521	39	2	
4	0	0	0	0	505	525	0	527	39	2	
5	0	0	0	0	513	527	0	524	39	3	
6	0	0	0	0	510	527	0	536	39	3	
7	0	0	0	0	503	529	0	543	39	3	
8	0	0	0	0	514	528	0	540	39	3	
9	0	0	0	0	504	527	0	551	39	2	
10	0	0	0	0	511	528	0	547	38	2	
11	0	0	0	0	510	526	0	534	39	2	
12	0	0	0	0	504	527	0	518	39	2	
13	0	0	0	0	508	528	0	504	39	2	
14	0	0	0	0	518	530	0	499	39	3	
15	0	0	0	0	503	529	0	504	39	3	
0	0	0	0	0	500	529	0	523	39	3	
1	0	0	0	0	509	529	0	538	39	2	
2	0	0	0	0	509	527	0	537	38	2	
3	0	0	0	0	499	527	0	528	39	2	
4	0	0	0	0	507	527	0	517	39	2	
5	0	0	0	0	508	526	0	507	39	2	
6	0	0	0	0	510	524	0	497	39	3	
7	0	0	0	0	504	523	0	491	38	3	
8	0	0	0	0	502	524	0	488	39	3	
9	0	0	0	0	511	524	0	485	38	3	
10	0	0	0	0	503	521	0	502	38	2	
11	0	0	0	0	511	519	0	519	39	2	
12	0	0	0	0	512	517	0	520	38	2	
13	0	0	0	0	505	516	0	518	39	2	
14	0	0	0	0	508	515	0	531	39	3	
15	0	0	0	0	507	513	0	534	38	3	
0	0	0	0	0	507	512	0	521	39	3	
1	0	0	0	0	518	509	0	509	38	3	
2	0	0	0	0	505	508	0	501	38	2	
3	0	0	0	0	509	507	0	494	38	2	
4	0	0	0	0	509	506	0	487	38	2	
5	0	0	0	0	504	508	0	487	38	2	
6	0	0	0	0	512	508	0	483	39	2	
7	0	0	0	0	503	506	0	487	38	3	
8	0	0	0	0	500	504	0	484	38	3	
9	0	0	0	0	505	501	0	481	38	3	
10	0	0	0	0	503	500	0	483	38	3	
11	0	0	0	0	508	498	0	480	38	2	
12	0	0	0	0	510	498	0	487	38	2	
13	0	0	0	0	504	496	0	509	38	2	
14	0	0	0	0	508	496	0	525	39	2	
15	0	0	0	0	514	498	0	537	38	3	
0	0	0	0	0	511	497	0	547	38	3	
1	0	0	0	0	503	496	0	543	38	3	
2	0	0	0	0	518	494	0	539	38	3	
3	0	0	0	0	519	494	0	528	38	2	
4	0	0	0	0	512	496	0	517	38	2	
5	0	0	0	0	504	497	0	507	39	2	
6	0	0	0	0	504	497	0	498	39	2	
7	0	0	0	0	507	496	0	492	38	3	
8	0	0	0	0	518	495	0	487	38	3	
9	0	0	0	0	505	497	0	483	38	3	
10	0	0	0	0	506	498	0	480	38	3	
11	0	0	0	0	508	500	0	481	38	2	
12	0	0	0	0	504	502	0	476	38	2	
13	0	0	0	0	507	503	0	475	38	2	
14	0	0	0	0	507	505	0	473	39	2	
15	0	0	0	0	512	505	0	478	38	3	
0	0	0	0	0	506	504	0	505	38	3	
1	0	0	0	0	510	504	0	515	38	3	
2	0	0	0	0	509	505	0	528	38	3	
3	0	0	0	0	505	507	0	540	38	3	
4	0	0	0	0	509	507	0	534	38	2	
5	0	0	0	0	507	507	0	519	38	2	
6	0	0	0	0	505	507	0	505	39	2	
7	0	0	0	0	513	507	0	493	38	2	
8	0	0	0	0	509	508	0	497	38	3	
9	0	0	0	0	503	507	0	511	38	3	
10	0	0	0	0	504	503	0	511	38	3	
11	0	0	0	0	503	502	0	502	38	3	
12	0	0	0	0	506	502	0	511	38	2	
13	0	0	0	0	510	504	0	521	38	2	
14	0	0	0	0	515	504	0	528	39	2	
15	0	0	0	0	499	502	0	539	38	2	
0	0	0	0	0	509	502	0	534	39	3	
1	0	0	0	0	505	503	0	539	38	3	
2	0	0	0	0	510	505	0	543	38	3	
3	0	0	0	0	513	505	0	543	38	3	
4	0	0	0	0	503	504	0	536	38	2	
5	0	0	0	0	507	504	0	521	39	2	
6	0	0	0	0	504	503	0	507	39	2	
7	0	0	0	0	507	502	0	496	38	2	
8	0	0	0	0	505	501	0	495	39	2	
9	0	0	0	0	515	500	0	511	38	3	
10	0	0	0	0	513	500	0	518	38	3	
11	0	0	0	0	507	501	0	509	39	3	
12	0	0	0	0	511	501	0	501	39	3	
13	0	0	0	0	504	499	0	491	39	2	
14	0	0	0	0	507	500	0	483	39	2	
15	0	0	0	0	504	501	0	479	38	2	
0	0	0	0	0	504	500	0	472	38	2	
1	0	0	0	0	510	504	0	470	38	3	
2	0	0	0	0	514	506	0	473	38	3	
3	0	0	0	0	508	508	0	497	38	3	
4	0	0	0	0	505	508	0	519	38	3	
5	0	0	0	0	510	504	0	503	38	2	
6	0	0	0	0	510	504	0	508	39	2	
7	0	0	0	0	506	502	0	521	38	2	
8	0	0	0	0	505	499	0	515	38	2	
9	0	0	0	0	504	497	0	507	39	3	
10	0	0	0	0	510	496	0	493	38	3	
11	0	0	0	0	506	495	0	493	39	3	
12	0	0	0	0	516	494	0	493	38	3	
13	0	0	0	0	508	492	0	487	39	2	
14	0	0	0	0	503	491	0	481	39	2	
15	0	0	0	0	500	488	0	478	38	2	
0	0	0	0	0	505	486	0	475	39	2	
1	0	0	0	0	504	482	0	468	38	2	
2	0	0	0	0	512	480	0	470	38	3	
3	0	0	0	0	509	478	0	463	38	3	
4	0	0	0	0	505	476	0	461	38	3	
5	0	0	0	0	509	476	0	465	39	3	
6	0	0	0	0	503	475	0	468	39	2	
7	0	0	0	0	506	473	0	492	38	2	
8	0	0	0	0	511	473	0	501	38	2	
9	0	0	0	0	515	473	0	492	38	2	
10	0	0	0	0	505	476	0	486	38	3	
11	0	0	0	0	508	478	0	477	38	3	
12	0	0	0	0	511	481	0	476	38	3	
13	0	0	0	0	510	485	0	470	38	3	
14	0	0	0	0	512	488	0	464	39	2	
15	0	0	0	0	509	497	0	475	38	2	
0	0	0	0	0	507	503	0	467	38	2	
1	0	0	0	0	505	509	0	489	38	2	
2	0	0	0	0	512	516	0	502	38	2	
3	0	0	0	0	510	524	0	517	38	3	
4	0	0	0	0	510	532	0	532	38	3	
5	0	0	0	0	507	542	0	534	39	3	
6	0	0	0	0	506	553	0	546	39	2	
7	0	0	0	0	509	566	0	539	39	2	
8	0	0	0	0	506	580	0	539	38	2	
9	0	0	0	0	506	599	0	539	38	2	
10	0	0	0	0	509	618	0	527	38	2	
11	0	0	0	0	506	641	0	515	38	3	
12	0	0	0	0	506	666	0	510	38	3	
13	0	0	0	0	508	688	0	497	38	3	
14	0	0	0	0	507	712	0	492	39	2	
15	0	0	0	0	505	735	0	485	38	2	
0	0	0	0	0	509	758	0	479	38	2	
1	0	0	0	0	511	781	0	475	38	2	
2	0	0	0	0	506	802	0	471	38	2	
3	0	0	0	0	505	818	0	482	38	3	
4	0	0	0	0	504	825	0	506	38	3	
5	0	0	0	0	509	825	0	513	39	3	
6	0	0	0	0	507	821	0	510	39	2	
7	0	0	0	0	513	812	0	520	39	2	
8	0	0	0	0	508	800	0	527	38	2	
9	0	0	0	0	503	779	0	518	38	2	
10	0	0	0	0	509	750	0	518	38	2	
11	0	0	0	0	511	717	0	500	38	2	
12	0	0	0	0	506	684	0	489	38	3	
13	0	0	0	0	504	657	0	489	38	3	
14	0	0	0	0	505	629	0	483	39	3	
15	0	0	0	0	501	605	0	483	38	2	
0	0	0	0	0	511	584	0	487	38	2	
1	0	0	0	0	511	567	0	497	38	2	
2	0	0	0	0	503	552	0	519	38	2	
3	0	0	0	0	510	539	0	524	38	2	
4	0	0	0	0	508	526	0	515	38	3	
5	0	0	0	0	512	516	0	507	38	3	
6	0	0	0	0	503	506	0	501	39	3	
7	0	0	0	0	504	496	0	505	38	2	
8	0	0	0	0	508	485	0	516	38	2	
9	0	0	0	0	509	475	0	531	38	2	
10	0	0	0	0	510	465	0	509	38	2	
11	0	0	0	0	509	457	0	515	38	2	
12	0	0	0	0	504	449	0	512	38	3	
13	0	0	0	0	509	438	0	505	38	3	
14	0	0	0	0	505	431	0	498	39	3	
15	0	0	0	0	506	424	0	495	38	3	
0	0	0	0	0	511	419	0	489	38	2	
1	0	0	0	0	510	414	0	488	38	2	
2	0	0	0	0	504	407	0	493	38	2	
3	0	0	0	0	503	403	0	518	38	2	
4	0	0	0	0	504	401	0	529	38	2	
5	0	0	0	0	505	398	0	524	39	3	
6	0	0	0	0	511	396	0	530	39	3	
7	0	0	0	0	511	395	0	544	38	3	
8	0	0	0	0	510	393	0	547	38	2	
9	0	0	0	0	504	391	0	557	38	2	
10	0	0	0	0	508	392	0	558	38	2	
11	0	0	0	0	506	393	0	547	38	2	
12	0	0	0	0	508	394	0	531	38	2	
13	0	0	0	0	505	396	0	518	39	3	
14	0	0	0	0	511	400	0	511	39	3	
15	0	0	0	0	508	402	0	503	38	3	
0	0	0	0	0	509	408	0	511	38	2	
1	0	0	0	0	506	414	0	527	39	2	
2	0	0	0	0	512	420	0	528	38	2	
3	0	0	0	0	514	426	0	524	38	2	
4	0	0	0	0	506	431	0	516	38	2	
5	0	0	0	0	504	438	0	511	39	3	
6	0	0	0	0	506	442	0	505	39	3	
7	0	0	0	0	506	445	0	505	38	3	
8	0	0	0	0	508	449	0	502	38	3	
9	0	0	0	0	514	452	0	496	38	2	
10	0	0	0	0	508	456	0	507	38	2	
11	0	0	0	0	497	460	0	528	38	2	
12	0	0	0	0	501	463	0	533	38	2	
13	0	0	0	0	507	465	0	531	39	3	
14	0	0	0	0	509	467	0	538	39	3	
15	0	0	0	0	512	469	0	548	38	3	
0	0	0	0	0	500	469	0	544	38	3	
1	0	0	0	0	507	471	0	531	38	2	
2	0	0	0	0	503	472	0	520	38	2	
3	0	0	0	0	509	473	0	510	39	2	
4	0	0	0	0	509	478	0	502	39	2	
5	0	0	0	0	506	482	0	498	39	2	
6	0	0	0	0	507	485	0	496	39	3	
7	0	0	0	0	512	486	0	494	39	3	
8	0	0	0	0	508	486	0	490	38	3	
9	0	0	0	0	507	488	0	490	39	2	
10	0	0	0	0	505	489	0	487	38	2	
11	0	0	0	0	507	491	0	489	39	2	
12	0	0	0	0	519	492	0	487	38	2	
13	0	0	0	0	517	490	0	485	39	2	
14	0	0	0	0	504	490	0	486	39	3	
15	0	0	0	0	514	490	0	489	38	3	
0	0	0	0	0	504	491	0	512	38	3	
1	0	0	0	0	511	491	0	524	39	3	
2	0	0	0	0	505	492	0	539	38	2	
3	0	0	0	0	505	493	0	551	39	2	
4	0	0	0	0	506	496	0	544	39	2	
5	0	0	0	0	504	498	0	535	39	2	
6	0	0	0	0	509	500	0	523	39	3	
7	0	0	0	0	504	500	0	512	39	3	
8	0	0	0	0	506	502	0	517	38	3	
9	0	0	0	0	508	502	0	531	39	3	
10	0	0	0	0	510	501	0	532	38	2	
11	0	0	0	0	513	502	0	528	39	2	
12	0	0	0	0	508	501	0	529	38	2	
13	0	0	0	0	510	501	0	524	38	2	
14	0	0	0	0	499	497	0	515	39	2	
15	0	0	0	0	502	494	0	509	38	3	
0	0	0	0	0	509	495	0	505	38	3	
1	0	0	0	0	503	496	0	519	38	3	
2	0	0	0	0	503	499	0	536	38	3	
3	0	0	0	0	512	500	0	536	38	2	
4	0	0	0	0	507	500	0	530	38	2	
5	0	0	0	0	509	501	0	521	39	2	
6	0	0	0	0	511	502	0	511	39	2	
7	0	0	0	0	507	505	0	505	38	3	
8	0	0	0	0	503	504	0	502	38	3	
9	0	0	0	0	504	505	0	497	38	3	
10	0	0	0	0	520	509	0	495	38	3	
11	0	0	0	0	512	512	0	510	38	2	
12	0	0	0	0	515	515	0	528	38	2	
13	0	0	0	0	505	516	0	535	39	2	
14	0	0	0	0	505	516	0	554	39	2	
15	0	0	0	0	505	516	0	555	38	3	
0	0	0	0	0	509	516	0	542	38	3	
1	0	0	0	0	507	518	0	527	38	3	
2	0	0	0	0	510	517	0	521	38	3	
3	0	0	0	0	508	518	0	519	38	2	
4	0	0	0	0	507	517	0	513	38	2	
5	0	0	0	0	507	517	0	504	38	2	
6	0	0	0	0	510	520	0	500	39	2	
7	0	0	0	0	508	518	0	497	38	3	
8	0	0	0	0	510	518	0	495	38	3	
9	0	0	0	0	505	517	0	491	38	3	
10	0	0	0	0	501	517	0	509	38	3	
11	0	0	0	0	510	517	0	526	38	3	
12	0	0	0	0	508	515	0	526	38	2	
13	0	0	0	0	510	517	0	524	38	2	
14	0	0	0	0	512	518	0	539	39	2	
15	0	0	0	0	508	519	0	544	38	2	
0	0	0	0	0	505	519	0	536	38	3	
1	0	0	0	0	507	518	0	524	38	3	
2	0	0	0	0	505	518	0	512	38	3	
3	0	0	0	0	509	520	0	505	38	3	
4	0	0	0	0	510	522	0	496	38	2	
5	0	0	0	0	503	524	0	489	38	2	
6	0	0	0	0	510	522	0	486	39	2	
7	0	0	0	0	505	520	0	485	38	2	
8	0	0	0	0	511	521	0	484	38	3	
9	0	0	0	0	505	520	0	478	38	3	
10	0	0	0	0	504	521	0	477	38	3	
11	0	0	0	0	502	520	0	475	38	3	
12	0	0	0	0	508	521	0	481	38	2	
13	0	0	0	0	513	521	0	504	38	2	
14	0	0	0	0	509	519	0	536	39	2	
15	0	0	0	0	505	520	0	532	38	2	
0	0	0	0	0	506	520	0	545	38	2	
1	0	0	0	0	504	519	0	537	38	3	
2	0	0	0	0	506	519	0	524	38	3	
3	0	0	0	0	514	516	0	509	38	3	
4	0	0	0	0	506	516	0	515	39	3	
5	0	0	0	0	509	515	0	493	38	2	
6	0	0	0	0	509	515	0	489	39	2	
7	0	0	0	0	503	516	0	490	38	2	
8	0	0	0	0	515	514	0	482	38	2	
9	0	0	0	0	508	515	0	496	38	3	
10	0	0	0	0	506	516	0	521	38	3	
11	0	0	0	0	509	516	0	527	38	3	
12	0	0	0	0	509	517	0	522	38	3	
13	0	0	0	0	505	516	0	524	39	2	
14	0	0	0	0	508	515	0	519	39	2	
15	0	0	0	0	502	515	0	509	38	2	
0	0	0	0	0	507	516	0	504	38	2	
1	0	0	0	0	506	516	0	522	38	3	
2	0	0	0	0	509	515	0	533	38	3	
3	0	0	0	0	512	516	0	530	39	3	
4	0	0	0	0	513	516	0	523	39	3	
5	0	0	0	0	507	516	0	511	39	2	
6	0	0	0	0	505	516	0	504	39	2	
7	0	0	0	0	509	515	0	499	38	2	
8	0	0	0	0	509	514	0	503	38	2	
9	0	0	0	0	510	514	0	516	38	2	
10	0	0	0	0	499	514	0	520	38	3	
11	0	0	0	0	507	514	0	514	39	3	
12	0	0	0	0	514	515	0	507	38	3	
13	0	0	0	0	510	518	0	504	39	3	
14	0	0	0	0	504	519	0	498	39	2	
15	0	0	0	0	509	519	0	494	38	2	
0	0	0	0	0	505	521	0	492	38	2	
1	0	0	0	0	508	522	0	486	38	2	
2	0	0	0	0	511	524	0	497	38	3	
3	0	0	0	0	507	524	0	519	38	3	
4	0	0	0	0	506	524	0	524	38	3	
5	0	0	0	0	497	525	0	519	39	3	
6	0	0	0	0	508	526	0	528	39	2	
7	0	0	0	0	509	527	0	539	38	2	
8	0	0	0	0	505	527	0	526	38	2	
9	0	0	0	0	506	528	0	511	38	2	
10	0	0	0	0	504	528	0	499	38	2	
11	0	0	0	0	509	530	0	491	38	3	
12	0	0	0	0	507	530	0	494	38	3	
13	0	0	0	0	508	531	0	494	38	3	
14	0	0	0	0	504	531	0	494	39	2	
15	0	0	0	0	514	530	0	490	38	2	
0	0	0	0	0	507	529	0	485	38	2	
1	0	0	0	0	515	529	0	505	38	2	
2	0	0	0	0	504	530	0	522	38	2	
3	0	0	0	0	513	530	0	528	38	3	
4	0	0	0	0	513	531	0	525	38	3	
5	0	0	0	0	510	532	0	529	38	3	
6	0	0	0	0	507	533	0	542	39	3	
7	0	0	0	0	512	534	0	542	38	2	
8	0	0	0	0	511	536	0	552	38	2	
9	0	0	0	0	505	540	0	544	38	2	
10	0	0	0	0	500	541	0	529	38	2	
11	0	0	0	0	514	543	0	513	38	3	
12	0	0	0	0	508	542	0	501	38	3	
13	0	0	0	0	502	540	0	494	38	3	
14	0	0	0	0	509	540	0	486	39	3	
15	0	0	0	0	507	540	0	481	38	2	
0	0	0	0	0	504	542	0	479	38	2	
1	0	0	0	0	504	541	0	481	38	2	
2	0	0	0	0	508	541	0	505	38	2	
3	0	0	0	0	505	539	0	513	38	2	
4	0	0	0	0	504	541	0	508	38	3	
5	0	0	0	0	512	548	0	502	38	3	
6	0	0	0	0	507	553	0	495	39	3	
7	0	0	0	0	508	556	0	492	38	2	
8	0	0	0	0	512	556	0	504	38	2	
9	0	0	0	0	510	554	0	512	38	2	
10	0	0	0	0	508	554	0	511	38	2	
11	0	0	0	0	508	554	0	504	38	2	
12	0	0	0	0	512	554	0	500	38	3	
13	0	0	0	0	505	554	0	504	38	3	
14	0	0	0	0	508	554	0	499	39	3	
15	0	0	0	0	509	556	0	497	38	2	
0	0	0	0	0	505	555	0	495	38	2	
1	0	0	0	0	514	555	0	493	38	2	
2	0	0	0	0	503	554	0	512	38	2	
3	0	0	0	0	508	552	0	524	38	2	
4	0	0	0	0	507	552	0	520	38	3	
5	0	0	0	0	506	552	0	513	39	3	
6	0	0	0	0	500	555	0	506	39	3	
7	0	0	0	0	508	558	0	499	39	2	
8	0	0	0	0	505	559	0	492	38	2	
9	0	0	0	0	504	559	0	500	38	2	
10	0	0	0	0	512	561	0	518	38	2	
11	0	0	0	0	507	560	0	520	38	2	
12	0	0	0	0	504	560	0	514	39	2	
13	0	0	0	0	515	560	0	504	38	3	
14	0	0	0	0	514	561	0	497	39	3	
15	0	0	0	0	502	561	0	496	38	3	
0	0	0	0	0	510	562	0	513	38	2	
1	0	0	0	0	510	563	0	519	38	2	
2	0	0	0	0	507	563	0	511	38	2	
3	0	0	0	0	511	563	0	503	38	2	
4	0	0	0	0	518	563	0	495	38	2	
5	0	0	0	0	511	564	0	490	39	3	
6	0	0	0	0	501	564	0	490	39	3	
7	0	0	0	0	509	563	0	482	38	3	
8	0	0	0	0	503	563	0	481	39	3	
9	0	0	0	0	504	560	0	486	39	2	
10	0	0	0	0	497	557	0	509	38	2	
11	0	0	0	0	508	555	0	518	39	2	
12	0	0	0	0	510	553	0	516	38	2	
13	0	0	0	0	510	554	0	509	39	3	
14	0	0	0	0	515	552	0	509	39	3	
15	0	0	0	0	506	552	0	515	39	3	
0	0	0	0	0	507	551	0	508	38	2	
1	0	0	0	0	514	549	0	519	38	2	
2	0	0	0	0	502	547	0	537	38	2	
3	0	0	0	0	511	544	0	540	38	2	
4	0	0	0	0	503	541	0	527	38	2	
5	0	0	0	0	505	539	0	516	39	3	
6	0	0	0	0	510	535	0	507	39	3	
7	0	0	0	0	504	531	0	500	38	3	
8	0	0	0	0	508	527	0	500	38	3	
9	0	0	0	0	511	525	0	519	38	2	
10	0	0	0	0	511	521	0	521	38	2	
11	0	0	0	0	506	515	0	515	38	2	
12	0	0	0	0	511	511	0	509	38	2	
13	0	0	0	0	503	508	0	502	39	2	
14	0	0	0	0	506	504	0	496	39	3	
15	0	0	0	0	511	501	0	491	38	3	
0	0	0	0	0	506	499	0	492	39	3	
1	0	0	0	0	506	498	0	486	38	2	
2	0	0	0	0	512	496	0	491	38	2	
3	0	0	0	0	516	495	0	519	38	2	
4	0	0	0	0	512	491	0	526	38	2	
5	0	0	0	0	504	487	0	520	39	2	
6	0	0	0	0	511	483	0	527	39	3	
7	0	0	0	0	508	482	0	539	38	3	
8	0	0	0	0	510	480	0	534	39	3	
9	0	0	0	0	497	479	0	523	39	3	
10	0	0	0	0	511	476	0	511	38	2	
11	0	0	0	0	504	472	0	512	38	2	
12	0	0	0	0	506	467	0	509	38	2	
13	0	0	0	0	507	462	0	504	39	2	
14	0	0	0	0	507	459	0	499	39	3	
15	0	0	0	0	507	455	0	492	38	3	
0	0	0	0	0	495	453	0	491	38	3	
1	0	0	0	0	512	451	0	489	38	3	
2	0	0	0	0	507	448	0	491	38	2	
3	0	0	0	0	505	445	0	511	38	2	
4	0	0	0	0	509	442	0	523	38	2	
5	0	0	0	0	511	440	0	523	38	2	
6	0	0	0	0	505	437	0	511	39	2	
7	0	0	0	0	505	435	0	502	38	3	
8	0	0	0	0	508	436	0	498	38	3	
9	0	0	0	0	510	436	0	509	38	3	
10	0	0	0	0	505	435	0	528	38	3	
11	0	0	0	0	509	435	0	529	38	2	
12	0	0	0	0	505	432	0	521	38	2	
13	0	0	0	0	512	429	0	512	39	2	
14	0	0	0	0	514	427	0	503	39	2	
15	0	0	0	0	498	426	0	507	38	3	
0	0	0	0	0	507	425	0	519	38	3	
1	0	0	0	0	512	425	0	516	38	3	
2	0	0	0	0	505	425	0	508	38	3	
3	0	0	0	0	510	424	0	498	38	2	
4	0	0	0	0	508	425	0	496	38	2	
5	0	0	0	0	507	423	0	488	39	2	
6	0	0	0	0	504	422	0	484	39	2	
7	0	0	0	0	506	422	0	483	38	3	
8	0	0	0	0	504	422	0	479	38	3	
9	0	0	0	0	511	423	0	490	38	3	
10	0	0	0	0	506	422	0	515	38	3	
11	0	0	0	0	508	421	0	518	38	2	
12	0	0	0	0	512	420	0	513	39	2	
13	0	0	0	0	511	419	0	507	38	2	
14	0	0	0	0	505	419	0	506	39	2	
15	0	0	0	0	499	419	0	503	38	2	
0	0	0	0	0	501	419	0	502	38	3	
1	0	0	0	0	509	418	0	516	38	3	
2	0	0	0	0	514	417	0	524	38	3	
3	0	0	0	0	510	417	0	520	38	3	
4	0	0	0	0	504	415	0	507	38	2	
5	0	0	0	0	504	414	0	496	38	2	
6	0	0	0	0	503	414	0	489	39	2	
7	0	0	0	0	510	416	0	481	38	2	
8	0	0	0	0	511	417	0	488	38	3	
9	0	0	0	0	511	417	0	502	38	3	
10	0	0	0	0	498	417	0	504	38	3	
11	0	0	0	0	504	419	0	498	38	3	
12	0	0	0	0	507	422	0	490	38	2	
13	0	0	0	0	500	425	0	486	38	2	
14	0	0	0	0	508	427	0	479	39	2	
15	0	0	0	0	515	429	0	478	38	2	
0	0	0	0	0	509	432	0	474	38	3	
1	0	0	0	0	504	432	0	470	38	3	
2	0	0	0	0	512	433	0	482	38	3	
3	0	0	0	0	507	433	0	504	38	3	
4	0	0	0	0	512	433	0	511	38	2	
5	0	0	0	0	508	434	0	505	38	2	
6	0	0	0	0	509	434	0	492	39	2	
7	0	0	0	0	504	436	0	495	38	2	
8	0	0	0	0	504	437	0	508	38	3	
9	0	0	0	0	505	438	0	509	38	3	
10	0	0	0	0	507	439	0	524	38	3	
11	0	0	0	0	508	439	0	532	38	3	
12	0	0	0	0	504	442	0	525	39	3	
13	0	0	0	0	511	443	0	519	39	2	
14	0	0	0	0	514	444	0	516	39	2	
15	0	0	0	0	515	446	0	507	39	2	
0	0	0	0	0	509	446	0	514	39	2	
1	0	0	0	0	509	446	0	530	38	3	
2	0	0	0	0	508	445	0	521	38	3	
3	0	0	0	0	506	444	0	512	39	3	
4	0	0	0	0	504	444	0	504	39	3	
5	0	0	0	0	508	444	0	492	39	2	
6	0	0	0	0	504	445	0	486	39	2	
7	0	0	0	0	509	446	0	481	38	2	
8	0	0	0	0	504	448	0	480	38	2	
9	0	0	0	0	511	449	0	474	38	3	
10	0	0	0	0	502	448	0	489	38	3	
11	0	0	0	0	499	448	0	511	38	3	
12	0	0	0	0	516	449	0	514	38	3	
13	0	0	0	0	510	451	0	512	38	3	
14	0	0	0	0	505	452	0	529	39	2	
15	0	0	0	0	506	454	0	529	39	2	
0	0	0	0	0	505	456	0	519	39	2	
1	0	0	0	0	505	458	0	512	38	2	
2	0	0	0	0	503	457	0	499	38	3	
3	0	0	0	0	514	456	0	491	39	3	
4	0	0	0	0	508	454	0	487	38	3	
5	0	0	0	0	507	452	0	483	39	3	
6	0	0	0	0	511	450	0	480	39	2	
7	0	0	0	0	505	451	0	481	39	2	
8	0	0	0	0	510	452	0	478	38	2	
9	0	0	0	0	514	455	0	475	38	2	
10	0	0	0	0	509	460	0	478	38	3	
11	0	0	0	0	513	461	0	473	38	3	
12	0	0	0	0	506	463	0	476	38	3	
13	0	0	0	0	504	463	0	502	38	3	
14	0	0	0	0	502	464	0	516	39	2	
15	0	0	0	0	512	464	0	527	38	2	
0	0	0	0	0	506	464	0	541	38	2	
1	0	0	0	0	507	464	0	537	38	2	
2	0	0	0	0	511	462	0	534	38	3	
3	0	0	0	0	510	463	0	523	38	3	
4	0	0	0	0	506	463	0	511	38	3	
5	0	0	0	0	503	463	0	500	38	3	
6	0	0	0	0	512	464	0	494	39	2	
7	0	0	0	0	501	464	0	488	39	2	
8	0	0	0	0	511	465	0	484	38	2	
9	0	0	0	0	504	466	0	483	39	2	
10	0	0	0	0	509	465	0	481	38	2	
11	0	0	0	0	510	465	0	483	38	3	
12	0	0	0	0	510	466	0	482	38	3	
13	0	0	0	0	511	466	0	481	38	3	
14	0	0	0	0	506	468	0	483	39	3	
15	0	0	0	0	506	468	0	492	38	2	
0	0	0	0	0	501	466	0	515	38	2	
1	0	0	0	0	506	465	0	524	38	2	
2	0	0	0	0	511	463	0	519	38	2	
3	0	0	0	0	511	464	0	510	38	3	
4	0	0	0	0	505	465	0	508	38	3	
5	0	0	0	0	512	465	0	530	38	3	
6	0	0	0	0	510	466	0	535	39	3	
7	0	0	0	0	513	464	0	544	38	2	
8	0	0	0	0	508	465	0	568	38	2	
9	0	0	0	0	499	465	0	539	38	2	
10	0	0	0	0	504	464	0	526	38	2	
11	0	0	0	0	506	465	0	532	38	3	
12	0	0	0	0	507	467	0	511	38	3	
13	0	0	0	0	503	468	0	503	39	3	
14	0	0	0	0	500	468	0	496	39	3	
15	0	0	0	0	508	468	0	492	38	2	
0	0	0	0	0	510	468	0	487	38	2	
1	0	0	0	0	509	468	0	484	38	2	
2	0	0	0	0	507	470	0	496	38	2	
3	0	0	0	0	504	470	0	521	39	2	
4	0	0	0	0	514	470	0	527	38	3	
5	0	0	0	0	500	470	0	522	39	3	
6	0	0	0	0	512	469	0	513	39	3	
7	0	0	0	0	505	468	0	506	38	3	
8	0	0	0	0	508	467	0	503	38	2	
9	0	0	0	0	508	467	0	518	38	2	
10	0	0	0	0	509	467	0	520	38	2	
11	0	0	0	0	508	468	0	513	38	2	
12	0	0	0	0	505	470	0	507	38	3	
13	0	0	0	0	509	470	0	502	39	3	
14	0	0	0	0	507	470	0	498	39	3	
15	0	0	0	0	508	470	0	496	38	2	
0	0	0	0	0	515	469	0	527	38	2	
1	0	0	0	0	497	471	0	524	38	2	
2	0	0	0	0	511	472	0	524	38	2	
3	0	0	0	0	507	472	0	522	38	2	
4	0	0	0	0	501	471	0	513	39	2	
5	0	0	0	0	514	470	0	506	38	3	
6	0	0	0	0	511	470	0	505	39	3	
7	0	0	0	0	499	468	0	500	38	3	
8	0	0	0	0	505	467	0	499	38	2	
9	0	0	0	0	511	467	0	513	38	2	
10	0	0	0	0	509	466	0	513	38	2	
11	0	0	0	0	506	467	0	531	38	2	
12	0	0	0	0	510	468	0	531	38	2	
13	0	0	0	0	505	471	0	524	38	3	
14	0	0	0	0	503	472	0	516	39	3	
15	0	0	0	0	510	472	0	524	38	3	
0	0	0	0	0	506	472	0	532	38	2	
1	0	0	0	0	510	472	0	533	38	2	
2	0	0	0	0	504	474	0	551	38	2	
3	0	0	0	0	507	479	0	550	38	2	
4	0	0	0	0	510	480	0	537	38	2	
5	0	0	0	0	509	481	0	542	38	3	
6	0	0	0	0	510	481	0	513	39	3	
7	0	0	0	0	508	478	0	505	38	3	
8	0	0	0	0	508	476	0	497	38	3	
9	0	0	0	0	513	474	0	489	38	2	
10	0	0	0	0	506	475	0	489	38	2	
11	0	0	0	0	503	474	0	487	38	2	
12	0	0	0	0	505	474	0	489	38	2	
13	0	0	0	0	506	477	0	493	38	2	
14	0	0	0	0	514	477	0	489	39	3	
15	0	0	0	0	508	480	0	492	38	3	
0	0	0	0	0	509	480	0	489	38	3	
1	0	0	0	0	509	480	0	486	38	2	
2	0	0	0	0	506	481	0	487	38	2	
3	0	0	0	0	510	483	0	489	38	2	
4	0	0	0	0	512	484	0	492	38	2	
5	0	0	0	0	507	485	0	493	39	2	
6	0	0	0	0	502	485	0	504	39	3	
7	0	0	0	0	504	483	0	497	38	3	
8	0	0	0	0	514	480	0	495	38	3	
9	0	0	0	0	503	480	0	495	38	2	
10	0	0	0	0	507	481	0	494	38	2	
11	0	0	0	0	507	481	0	496	38	2	
12	0	0	0	0	515	481	0	500	39	2	
13	0	0	0	0	507	481	0	521	39	2	
14	0	0	0	0	502	484	0	545	39	3	
15	0	0	0	0	507	484	0	560	38	3	
0	0	0	0	0	507	484	0	574	38	3	
1	0	0	0	0	509	483	0	573	39	2	
2	0	0	0	0	504	481	0	578	38	2	
3	0	0	0	0	502	482	0	586	39	2	
4	0	0	0	0	515	483	0	582	38	2	
5	0	0	0	0	505	483	0	592	39	2	
6	0	0	0	0	503	484	0	583	39	2	
7	0	0	0	0	508	485	0	584	38	3	
8	0	0	0	0	509	487	0	587	39	3	
9	0	0	0	0	512	488	0	579	38	3	
10	0	0	0	0	500	489	0	585	38	2	
11	0	0	0	0	509	490	0	580	38	2	
12	0	0	0	0	513	490	0	560	38	2	
13	0	0	0	0	505	491	0	542	39	2	
14	0	0	0	0	513	490	0	529	39	2	
15	0	0	0	0	513	490	0	522	38	3	
0	0	0	0	0	504	489	0	534	38	3	
1	0	0	0	0	511	487	0	543	38	3	
2	0	0	0	0	510	487	0	538	38	3	
3	0	0	0	0	504	487	0	530	38	2	
4	0	0	0	0	504	486	0	523	38	2	
5	0	0	0	0	505	486	0	513	39	2	
6	0	0	0	0	515	487	0	503	39	2	
7	0	0	0	0	511	489	0	500	38	3	
8	0	0	0	0	509	490	0	491	38	3	
9	0	0	0	0	507	491	0	484	38	3	
10	0	0	0	0	505	492	0	483	38	3	
11	0	0	0	0	508	493	0	500	38	2	
12	0	0	0	0	510	494	0	520	39	2	
13	0	0	0	0	502	494	0	523	39	2	
14	0	0	0	0	509	496	0	523	39	2	
15	0	0	0	0	497	497	0	539	38	3	
0	0	0	0	0	517	498	0	550	38	3	
1	0	0	0	0	511	500	0	543	39	3	
2	0	0	0	0	504	500	0	530	38	3	
3	0	0	0	0	508	499	0	519	38	2	
4	0	0	0	0	506	499	0	510	39	2	
5	0	0	0	0	510	498	0	501	39	2	
6	0	0	0	0	505	497	0	496	39	2	
7	0	0	0	0	505	495	0	493	39	2	
8	0	0	0	0	500	494	0	493	38	3	
9	0	0	0	0	507	494	0	512	38	3	
10	0	0	0	0	518	493	0	532	38	3	
11	0	0	0	0	507	495	0	524	38	3	
12	0	0	0	0	506	495	0	516	38	2	
13	0	0	0	0	510	495	0	512	38	2	
14	0	0	0	0	505	494	0	504	39	2	
15	0	0	0	0	511	493	0	496	38	2	
0	0	0	0	0	512	493	0	505	38	3	
1	0	0	0	0	507	495	0	518	38	3	
2	0	0	0	0	502	496	0	520	38	3	
3	0	0	0	0	505	497	0	517	39	3	
4	0	0	0	0	511	497	0	506	38	2	
5	0	0	0	0	510	498	0	499	38	2	
6	0	0	0	0	505	497	0	495	39	2	
7	0	0	0	0	509	497	0	490	38	2	
8	0	0	0	0	512	500	0	487	38	3	
9	0	0	0	0	508	501	0	484	38	3	
10	0	0	0	0	505	503	0	494	38	3	
11	0	0	0	0	503	503	0	520	38	3	
12	0	0	0	0	498	502	0	532	38	2	
13	0	0	0	0	513	500	0	548	38	2	
14	0	0	0	0	511	500	0	547	39	2	
15	0	0	0	0	511	502	0	545	38	2	
0	0	0	0	0	500	502	0	533	38	2	
1	0	0	0	0	509	504	0	519	38	3	
2	0	0	0	0	515	505	0	510	38	3	
3	0	0	0	0	507	505	0	496	38	3	
4	0	0	0	0	503	507	0	489	39	3	
5	0	0	0	0	506	508	0	484	38	2	
6	0	0	0	0	505	510	0	485	39	2	
7	0	0	0	0	501	510	0	482	39	2	
8	0	0	0	0	506	509	0	479	38	2	
9	0	0	0	0	508	510	0	481	38	3	
10	0	0	0	0	504	510	0	478	38	3	
11	0	0	0	0	504	511	0	478	39	3	
12	0	0	0	0	510	512	0	483	39	3	
13	0	0	0	0	509	514	0	497	39	2	
14	0	0	0	0	512	515	0	515	39	2	
15	0	0	0	0	506	514	0	528	38	2	
0	0	0	0	0	508	513	0	540	38	2	
1	0	0	0	0	514	512	0	541	38	3	
2	0	0	0	0	511	510	0	531	38	3	
3	0	0	0	0	514	509	0	515	38	3	
4	0	0	0	0	506	506	0	503	38	3	
5	0	0	0	0	505	504	0	497	39	2	
6	0	0	0	0	502	503	0	491	39	2	
7	0	0	0	0	513	502	0	485	38	2	
8	0	0	0	0	500	504	0	483	38	2	
9	0	0	0	0	509	504	0	481	38	3	
10	0	0	0	0	508	504	0	505	38	3	
11	0	0	0	0	504	505	0	517	38	3	
12	0	0	0	0	504	505	0	511	38	3	
13	0	0	0	0	514	505	0	504	39	3	
14	0	0	0	0	505	504	0	496	39	2	
15	0	0	0	0	509	504	0	493	38	2	
0	0	0	0	0	509	504	0	511	38	2	
1	0	0	0	0	514	506	0	524	38	2	
2	0	0	0	0	505	510	0	522	38	3	
3	0	0	0	0	508	510	0	512	38	3	
4	0	0	0	0	512	511	0	502	38	3	
5	0	0	0	0	507	511	0	496	39	3	
6	0	0	0	0	510	510	0	488	39	2	
7	0	0	0	0	503	511	0	484	38	2	
8	0	0	0	0	508	510	0	481	38	2	
9	0	0	0	0	497	513	0	481	38	2	
10	0	0	0	0	515	513	0	501	38	3	
11	0	0	0	0	510	513	0	515	38	3	
12	0	0	0	0	509	512	0	514	38	3	
13	0	0	0	0	506	510	0	509	38	3	
14	0	0	0	0	508	510	0	502	39	2	
15	0	0	0	0	510	511	0	496	38	2	
0	0	0	0	0	511	511	0	492	38	2	
1	0	0	0	0	504	513	0	487	38	2	
2	0	0	0	0	504	513	0	482	38	2	
3	0	0	0	0	504	515	0	481	38	3	
4	0	0	0	0	513	516	0	480	38	3	
5	0	0	0	0	508	515	0	478	38	3	
6	0	0	0	0	505	517	0	479	39	3	
7	0	0	0	0	500	517	0	479	38	2	
8	0	0	0	0	505	516	0	483	38	2	
9	0	0	0	0	507	516	1	507	38	2	
10	0	0	0	0	513	516	0	523	38	2	
11	0	0	0	0	510	516	0	535	38	3	
12	0	0	0	0	506	515	0	553	38	3	
13	0	0	0	0	502	515	0	552	39	3	
14	0	0	0	0	507	514	0	539	39	3	
15	0	0	0	0	508	512	0	520	38	2	
0	0	0	0	0	504	514	0	503	38	2	
1	0	0	0	0	509	514	0	495	38	2	
2	0	0	0	0	507	515	0	515	38	2	
3	0	0	0	0	506	515	0	521	39	2	
4	0	0	0	0	515	514	0	517	38	3	
5	0	0	0	0	510	516	0	511	39	3	
6	0	0	0	0	508	519	0	516	39	3	
7	0	0	0	0	496	520	0	501	39	2	
8	0	0	0	0	510	522	0	498	39	2	
9	0	0	0	0	505	524	0	496	38	2	
10	0	0	0	0	510	527	0	493	38	2	
11	0	0	0	0	511	527	0	491	38	2	
12	0	0	0	0	500	528	0	495	38	3	
13	0	0	0	0	504	529	0	489	38	3	
14	0	0	0	0	507	529	0	486	39	3	
15	0	0	0	0	510	531	0	488	38	3	
0	0	0	0	0	512	529	0	490	38	2	
1	0	0	0	0	501	529	0	515	38	2	
2	0	0	0	0	511	532	0	531	38	2	
3	0	0	0	0	507	536	0	546	38	2	
4	0	0	0	0	511	538	0	557	38	3	
5	0	0	0	0	508	541	0	551	38	3	
6	0	0	0	0	508	543	0	540	39	3	
7	0	0	0	0	505	542	0	548	38	3	
8	0	0	0	0	512	541	0	551	38	2	
9	0	0	0	0	507	541	0	534	38	2	
10	0	0	0	0	511	538	0	528	38	2	
11	0	0	0	0	507	539	0	540	38	2	
12	0	0	0	0	504	539	0	532	38	3	
13	0	0	0	0	504	537	0	524	38	3	
14	0	0	0	0	510	537	0	518	39	3	
15	0	0	0	0	509	537	0	508	38	3	
0	0	0	0	0	505	536	0	501	39	2	
1	0	0	0	0	509	536	0	502	38	2	
2	0	0	0	0	512	535	0	492	38	2	
3	0	0	0	0	502	535	0	503	38	2	
4	0	0	0	0	499	535	0	529	38	2	
5	0	0	0	0	505	535	0	534	39	3	
6	0	0	0	0	507	534	0	528	39	3	
7	0	0	0	0	512	534	0	540	38	3	
8	0	0	0	0	506	536	0	545	39	3	
9	0	0	0	0	508	537	0	536	38	2	
10	0	0	0	0	505	536	0	525	38	2	
11	0	0	0	0	516	536	0	516	38	2	
12	0	0	0	0	503	535	0	508	38	2	
13	0	0	0	0	504	535	0	503	39	3	
14	0	0	0	0	507	536	0	500	39	3	
15	0	0	0	0	506	536	0	498	38	3	
0	0	0	0	0	514	536	0	496	38	3	
1	0	0	0	0	504	536	0	512	38	2	
2	0	0	0	0	512	537	0	535	38	2	
3	0	0	0	0	512	538	0	536	38	2	
4	0	0	0	0	508	539	0	530	38	2	
5	0	0	0	0	504	539	0	522	39	3	
6	0	0	0	0	506	540	0	510	39	3	
7	0	0	0	0	507	543	0	533	38	3	
8	0	0	0	0	502	544	0	528	38	3	
9	0	0	0	0	507	544	0	526	38	2	
10	0	0	0	0	514	544	0	520	38	2	
11	0	0	0	0	509	543	0	508	38	2	
12	0	0	0	0	506	542	0	512	38	2	
13	0	0	0	0	512	541	0	516	38	2	
14	0	0	0	0	502	538	0	512	39	3	
15	0	0	0	0	508	536	0	508	39	3	
0	0	0	0	0	513	534	0	505	39	3	
1	0	0	0	0	497	532	0	512	38	2	
2	0	0	0	0	507	531	0	533	38	2	
3	0	0	0	0	509	530	0	539	38	2	
4	0	0	0	0	508	528	0	533	39	2	
5	0	0	0	0	502	528	0	521	39	2	
6	0	0	0	0	503	527	0	514	39	3	
7	0	0	0	0	511	526	0	507	38	3	
8	0	0	0	0	505	526	0	502	38	3	
9	0	0	0	0	515	525	0	498	38	2	
10	0	0	0	0	512	523	0	493	38	2	
11	0	0	0	0	503	521	0	503	38	2	
12	0	0	0	0	501	519	0	529	38	2	
13	0	0	0	0	508	519	0	538	38	2	
14	0	0	0	0	504	520	0	553	39	2	
15	0	0	0	0	507	519	0	557	39	3	
0	0	0	0	0	514	518	0	543	39	3	
1	0	0	0	0	513	516	0	528	38	3	
2	0	0	0	0	511	514	0	518	38	2	
3	0	0	0	0	506	513	0	508	39	2	
4	0	0	0	0	512	512	0	500	38	2	
5	0	0	0	0	505	510	0	498	39	2	
6	0	0	0	0	504	506	0	494	39	2	
7	0	0	0	0	501	504	0	493	38	3	
8	0	0	0	0	511	502	0	492	38	3	
9	0	0	0	0	505	497	0	489	38	3	
10	0	0	0	0	512	496	0	490	38	2	
11	0	0	0	0	507	495	0	486	38	2	
12	0	0	0	0	508	496	0	490	38	2	
13	0	0	0	0	504	497	0	514	38	2	
14	0	0	0	0	505	497	0	531	39	2	
15	0	0	0	0	499	497	0	543	38	3	
0	0	0	0	0	506	496	0	556	38	3	
1	0	0	0	0	512	497	0	553	38	3	
2	0	0	0	0	507	497	0	550	38	3	
3	0	0	0	0	510	496	0	538	38	2	
4	0	0	0	0	507	495	0	529	39	2	
5	0	0	0	0	509	494	0	519	39	2	
6	0	0	0	0	507	495	0	510	39	2	
7	0	0	0	0	509	496	0	505	38	3	
8	0	0	0	0	514	497	0	496	38	3	
9	0	0	0	0	507	499	0	494	38	3	
10	0	0	0	0	499	498	0	493	38	3	
11	0	0	0	0	511	498	0	494	38	2	
12	0	0	0	0	508	498	0	495	39	2	
13	0	0	0	0	507	497	0	512	38	2	
14	0	0	0	0	506	496	0	531	39	2	
15	0	0	0	0	506	493	0	540	38	2	
0	0	0	0	0	504	492	0	559	38	3	
1	0	0	0	0	507	492	0	559	38	3	
2	0	0	0	0	512	492	0	545	38	3	
3	0	0	0	0	505	493	0	534	38	3	
4	0	0	0	0	505	492	0	520	38	2	
5	0	0	0	0	504	493	0	508	38	2	
6	0	0	0	0	513	493	0	505	39	2	
7	0	0	0	0	510	493	0	496	38	2	
8	0	0	0	0	510	494	0	493	38	3	
9	0	0	0	0	506	493	0	499	38	3	
10	0	0	0	0	502	492	0	518	38	3	
11	0	0	0	0	508	492	0	525	38	3	
12	0	0	0	0	513	492	0	533	38	2	
13	0	0	0	0	508	494	0	517	39	2	
14	0	0	0	0	511	494	0	515	39	2	
15	0	0	0	0	511	496	0	522	38	2	
0	0	0	0	0	506	497	0	514	38	3	
1	0	0	0	0	507	498	0	525	38	3	
2	0	0	0	0	507	499	0	545	38	3	
3	0	0	0	0	507	498	0	541	38	3	
4	0	0	0	0	500	496	0	531	38	2	
5	0	0	0	0	512	494	0	524	39	2	
6	0	0	0	0	507	494	0	509	39	2	
7	0	0	0	0	501	496	0	503	38	2	
8	0	0	0	0	503	497	0	512	38	2	
9	0	0	0	0	508	500	0	522	38	3	
10	0	0	0	0	515	500	0	526	38	3	
11	0	0	0	0	512	499	0	519	38	3	
12	0	0	0	0	511	500	0	512	38	3	
13	0	0	0	0	500	500	0	504	39	2	
14	0	0	0	0	503	500	0	498	39	2	
15	0	0	0	0	511	502	0	493	39	2	
0	0	0	0	0	514	502	0	488	38	2	
1	0	0	0	0	511	505	0	486	38	3	
2	0	0	0	0	508	504	0	490	38	3	
3	0	0	0	0	506	505	0	515	39	3	
4	0	0	0	0	504	505	0	523	39	3	
5	0	0	0	0	510	504	0	518	39	2	
6	0	0	0	0	499	503	0	522	39	2	
7	0	0	0	0	500	503	0	537	39	2	
8	0	0	0	0	507	499	0	532	39	2	
9	0	0	0	0	515	497	0	521	39	3	
10	0	0	0	0	512	494	0	538	38	3	
11	0	0	0	0	510	493	0	516	39	3	
12	0	0	0	0	507	491	0	505	39	3	
13	0	0	0	0	505	488	0	509	39	2	
14	0	0	0	0	507	486	0	492	39	2	
15	0	0	0	0	509	484	0	486	39	2	
0	0	0	0	0	516	485	0	486	39	2	
1	0	0	0	0	508	485	0	485	39	2	
2	0	0	0	0	502	483	0	509	38	3	
3	0	0	0	0	509	481	0	525	39	3	
4	0	0	0	0	507	481	0	532	39	3	
5	0	0	0	0	511	482	0	543	39	3	
6	0	0	0	0	511	482	0	559	39	2	
7	0	0	0	0	509	484	0	552	39	2	
8	0	0	0	0	508	486	0	546	39	2	
9	0	0	0	0	503	488	0	531	39	2	
10	0	0	0	0	507	495	0	512	38	3	
11	0	0	0	0	505	501	0	496	39	3	
12	0	0	0	0	506	509	0	488	39	3	
13	0	0	0	0	505	517	0	478	39	3	
14	0	0	0	0	507	526	0	473	39	2	
15	0	0	0	0	508	537	0	472	38	2	
0	0	0	0	0	508	550	0	473	39	2	
1	0	0	0	0	504	564	0	495	39	2	
2	0	0	0	0	513	578	0	503	38	3	
3	0	0	0	0	514	595	0	497	39	3	
4	0	0	0	0	512	615	0	493	39	3	
5	0	0	0	0	505	632	0	486	39	3	
6	0	0	0	0	504	651	0	480	39	2	
7	0	0	0	0	510	673	0	474	39	2	
8	0	0	0	0	508	695	0	468	38	2	
9	0	0	0	0	508	719	0	467	38	2	
10	0	0	0	0	511	739	0	470	38	3	
11	0	0	0	0	508	759	0	495	39	3	
12	0	0	0	0	505	782	0	505	39	3	
13	0	0	0	0	505	802	0	519	38	3	
14	0	0	0	0	504	817	0	530	39	3	
15	0	0	0	0	512	823	0	525	38	2	
0	0	0	0	0	508	823	0	520	38	2	
1	0	0	0	0	505	817	0	509	38	2	
2	0	0	0	0	506	806	0	494	38	2	
3	0	0	0	0	506	792	0	486	38	3	
4	0	0	0	0	507	768	0	478	38	3	
5	0	0	0	0	504	737	0	473	38	3	
6	0	0	0	0	506	704	0	472	39	3	
7	0	0	0	0	515	670	0	469	38	2	
8	0	0	0	0	509	643	0	470	38	2	
9	0	0	0	0	502	616	0	466	38	2	
10	0	0	0	0	507	593	0	473	38	2	
11	0	0	0	0	504	573	0	494	38	3	
12	0	0	0	0	507	559	0	510	38	3	
13	0	0	0	0	514	547	0	532	38	3	
14	0	0	0	0	507	536	0	542	39	3	
15	0	0	0	0	509	529	0	541	38	2	
0	0	0	0	0	513	520	0	556	38	2	
1	0	0	0	0	507	511	0	548	38	2	
2	0	0	0	0	506	503	0	535	38	2	
3	0	0	0	0	506	492	0	518	38	2	
4	0	0	0	0	507	482	0	501	39	3	
5	0	0	0	0	506	472	0	489	38	3	
6	0	0	0	0	508	463	0	483	39	3	
7	0	0	0	0	511	457	0	480	38	3	
8	0	0	0	0	512	448	0	480	39	2	
9	0	0	0	0	508	440	0	503	38	2	
10	0	0	0	0	507	432	0	510	38	2	
11	0	0	0	0	513	423	0	505	38	2	
12	0	0	0	0	506	416	0	507	38	3	
13	0	0	0	0	514	408	0	505	38	3	
14	0	0	0	0	506	401	0	500	39	3	
15	0	0	0	0	505	396	0	492	38	3	
0	0	0	0	0	507	391	0	487	38	2	
1	0	0	0	0	513	389	0	495	38	2	
2	0	0	0	0	506	388	0	515	38	2	
3	0	0	0	0	503	387	0	521	38	2	
4	0	0	0	0	502	388	0	536	38	3	
5	0	0	0	0	509	390	0	541	39	3	
6	0	0	0	0	504	394	0	544	39	3	
7	0	0	0	0	509	399	0	553	38	3	
8	0	0	0	0	497	402	0	543	38	2	
9	0	0	0	0	507	404	0	527	38	2	
10	0	0	0	0	513	409	0	512	38	2	
11	0	0	0	0	504	414	0	501	38	2	
12	0	0	0	0	509	416	0	493	38	2	
13	0	0	0	0	507	419	0	502	38	3	
14	0	0	0	0	510	423	0	487	39	3	
15	0	0	0	0	507	426	0	483	39	3	
0	0	0	0	0	511	432	0	495	39	2	
1	0	0	0	0	507	439	0	510	39	2	
2	0	0	0	0	499	444	0	515	38	2	
3	0	0	0	0	513	445	0	514	39	2	
4	0	0	0	0	517	447	0	504	38	2	
5	0	0	0	0	510	450	0	501	39	3	
6	0	0	0	0	512	450	0	498	39	3	
7	0	0	0	0	507	453	0	496	39	3	
8	0	0	0	0	504	458	0	494	38	3	
9	0	0	0	0	513	461	0	491	38	2	
10	0	0	0	0	512	462	0	502	38	2	
11	0	0	0	0	502	464	0	524	39	2	
12	0	0	0	0	499	467	0	532	38	2	
13	0	0	0	0	505	470	0	527	39	3	
14	0	0	0	0	501	472	0	537	39	3	
15	0	0	0	0	502	474	0	550	39	3	
0	0	0	0	0	511	476	0	545	39	3	
1	0	0	0	0	510	478	0	544	38	2	
2	0	0	0	0	513	479	0	550	38	2	
3	0	0	0	0	514	480	0	524	38	2	
4	0	0	0	0	507	482	0	518	38	2	
5	0	0	0	0	503	484	0	514	39	2	
6	0	0	0	0	506	485	0	509	39	3	
7	0	0	0	0	510	486	0	508	38	3	
8	0	0	0	0	506	485	0	504	38	3	
9	0	0	0	0	506	484	0	505	38	2	
10	0	0	0	0	509	484	0	504	38	2	
11	0	0	0	0	508	484	0	506	38	2	
12	0	0	0	0	501	483	0	506	38	2	
13	0	0	0	0	521	483	0	503	38	2	
14	0	0	0	0	510	484	0	514	39	3	
15	0	0	0	0	507	486	0	536	38	3	
0	0	0	0	0	508	488	0	541	38	3	
1	0	0	0	0	507	491	0	558	38	3	
2	0	0	0	0	504	493	0	566	38	2	
3	0	0	0	0	504	496	0	558	38	2	
4	0	0	0	0	516	497	0	561	38	2	
5	0	0	0	0	504	498	0	534	38	2	
6	0	0	0	0	510	499	0	524	39	2	
7	0	0	0	0	501	500	0	513	38	3	
8	0	0	0	0	506	502	0	519	38	3	
9	0	0	0	0	498	504	0	534	38	3	
10	0	0	0	0	514	505	0	536	38	2	
11	0	0	0	0	511	506	0	530	38	2	
12	0	0	0	0	508	506	0	519	38	2	
13	0	0	0	0	506	507	0	526	38	2	
14	0	0	0	0	508	506	0	543	39	2	
15	0	0	0	0	517	504	0	543	38	3	
0	0	0	0	0	500	503	0	556	38	3	
1	0	0	0	0	508	502	0	561	38	3	
2	0	0	0	0	506	504	0	562	38	2	
3	0	0	0	0	512	504	0	561	38	2	
4	0	0	0	0	505	505	0	556	38	2	
5	0	0	0	0	508	506	0	545	38	2	
6	0	0	0	0	511	507	0	531	39	2	
7	0	0	0	0	511	507	0	521	38	3	
8	0	0	0	0	507	506	0	512	38	3	
9	0	0	0	0	500	505	0	509	38	3	
10	0	0	0	0	509	506	0	504	38	3	
11	0	0	0	0	508	505	0	498	38	2	
12	0	0	0	0	508	505	0	510	38	2	
13	0	0	0	0	503	506	0	533	38	2	
14	0	0	0	0	508	506	0	540	39	2	
15	0	0	0	0	507	505	0	556	38	2	
0	0	0	0	0	510	505	0	561	38	3	
1	0	0	0	0	510	507	0	549	38	3	
2	0	0	0	0	506	507	0	535	38	3	
3	0	0	0	0	509	508	0	540	38	2	
4	0	0	0	0	512	508	0	514	38	2	
5	0	0	0	0	506	509	0	504	38	2	
6	0	0	0	0	501	511	0	502	39	2	
7	0	0	0	0	508	511	0	497	38	2	
8	0	0	0	0	498	512	0	493	38	3	
9	0	0	0	0	510	512	0	494	38	3	
10	0	0	0	0	504	510	0	507	38	3	
11	0	0	0	0	506	511	0	529	38	2	
12	0	0	0	0	513	511	0	532	38	2	
13	0	0	0	0	508	511	0	530	38	2	
14	0	0	0	0	508	508	0	542	39	2	
15	0	0	0	0	512	505	0	544	38	2	
0	0	0	0	0	504	504	0	542	39	3	
1	0	0	0	0	503	502	0	537	38	3	
2	0	0	0	0	499	500	0	527	38	3	
3	0	0	0	0	504	499	0	519	39	3	
4	0	0	0	0	515	497	0	508	38	2	
5	0	0	0	0	509	497	0	519	39	2	
6	0	0	0	0	499	498	0	499	39	2	
