# OpenSignals Text File Format. Version 1
# {"98:D3:51:FD:71:01": {"position": 0, "device": "bitalino_rev", "device name": "98:D3:51:FD:71:01", "device connection": "BTH98:D3:51:FD:71:01", "sampling rate": 1000, "resolution": [4, 1, 1, 1, 1, 10, 10, 10, 10, 6, 6], "firmware version": 1282, "comments": "", "keywords": "", "mode": 0, "sync interval": 2, "date": "2024-6-28", "time": "9:16:24.5", "channels": [1, 2, 3, 4, 5, 6], "sensor": ["RAW", "ECGBIT", "RAW", "RAW", "RAW", "RAW"], "label": ["A1", "A2", "A3", "A4", "A5", "A6"], "column": ["nSeq", "I1", "I2", "O1", "O2", "A1", "A2", "A3", "A4", "A5", "A6"], "special": [{}, {}, {}, {}, {}, {}], "digital IO": [0, 0, 1, 1]}}
# EndOfHeader
0	0	0	0	0	510	489	0	539	38	6	
1	0	0	0	0	503	494	0	541	38	6	
2	0	0	0	0	504	497	0	536	38	6	
3	0	0	0	0	512	497	0	534	38	6	
4	0	0	0	0	508	496	0	531	38	6	
5	0	0	0	0	502	493	0	528	38	6	
6	0	0	0	0	512	493	0	530	38	6	
7	0	0	0	0	503	494	0	528	38	6	
8	0	0	0	0	507	490	0	521	38	6	
9	0	0	0	0	503	490	0	518	38	6	
10	0	0	0	0	507	492	0	515	38	6	
11	0	0	0	0	513	493	0	518	38	6	
12	0	0	0	0	505	493	0	520	38	6	
13	0	0	0	0	512	493	0	516	38	6	
14	0	0	0	0	515	494	0	518	38	6	
15	0	0	0	0	515	494	0	516	38	6	
0	0	0	0	0	511	495	0	515	38	6	
1	0	0	0	0	509	496	0	511	38	6	
2	0	0	0	0	506	498	0	511	38	6	
3	0	0	0	0	507	499	0	536	38	6	
4	0	0	0	0	509	499	0	549	38	6	
5	0	0	0	0	509	500	0	577	38	6	
6	0	0	0	0	507	501	0	583	38	6	
7	0	0	0	0	505	503	0	594	38	6	
8	0	0	0	0	513	505	0	600	38	6	
9	0	0	0	0	509	505	0	583	38	6	
10	0	0	0	0	495	503	0	567	38	6	
11	0	0	0	0	496	505	0	552	38	6	
12	0	0	0	0	513	508	0	542	38	6	
13	0	0	0	0	515	511	0	541	38	6	
14	0	0	0	0	512	509	0	531	38	6	
15	0	0	0	0	512	506	0	530	38	6	
0	0	0	0	0	505	507	0	528	38	6	
1	0	0	0	0	506	509	0	545	38	6	
2	0	0	0	0	502	509	0	566	38	6	
3	0	0	0	0	511	504	0	568	38	6	
4	0	0	0	0	512	502	0	566	38	6	
5	0	0	0	0	513	500	0	569	38	6	
6	0	0	0	0	505	498	0	558	38	6	
7	0	0	0	0	506	499	0	562	38	6	
8	0	0	0	0	508	500	0	577	38	6	
9	0	0	0	0	508	501	0	574	38	6	
10	0	0	0	0	511	500	0	560	38	6	
11	0	0	0	0	507	498	0	547	38	6	
12	0	0	0	0	504	498	0	538	38	6	
13	0	0	0	0	509	497	0	533	38	6	
14	0	0	0	0	510	495	0	530	38	6	
15	0	0	0	0	505	492	0	528	38	6	
0	0	0	0	0	506	489	0	545	38	6	
1	0	0	0	0	506	489	0	562	38	6	
2	0	0	0	0	508	490	0	563	38	6	
3	0	0	0	0	504	491	0	556	38	6	
4	0	0	0	0	509	492	0	547	38	6	
5	0	0	0	0	506	492	0	539	38	6	
6	0	0	0	0	509	489	0	545	38	6	
7	0	0	0	0	503	489	0	529	38	6	
8	0	0	0	0	500	489	0	527	38	6	
9	0	0	0	0	498	488	0	527	38	6	
10	0	0	0	0	507	486	0	541	38	6	
11	0	0	0	0	507	483	0	559	38	6	
12	0	0	0	0	510	480	0	559	38	6	
13	0	0	0	0	514	480	0	556	38	6	
14	0	0	0	0	508	480	0	575	38	6	
15	0	0	0	0	504	476	0	571	38	6	
0	0	0	0	0	506	470	0	559	38	6	
1	0	0	0	0	506	467	0	555	38	6	
2	0	0	0	0	514	469	0	551	38	6	
3	0	0	0	0	505	468	0	541	38	6	
4	0	0	0	0	511	465	0	531	38	6	
5	0	0	0	0	512	465	0	525	38	7	
6	0	0	0	0	508	465	0	524	38	6	
7	0	0	0	0	509	462	0	521	38	6	
8	0	0	0	0	507	459	0	519	38	6	
9	0	0	0	0	508	458	0	516	38	6	
10	0	0	0	0	506	460	0	518	38	6	
11	0	0	0	0	504	459	0	519	38	6	
12	0	0	0	0	506	458	0	518	38	6	
13	0	0	0	0	497	459	0	520	38	6	
14	0	0	0	0	507	459	0	538	38	6	
15	0	0	0	0	506	460	0	557	38	6	
0	0	0	0	0	510	463	0	565	38	6	
1	0	0	0	0	511	465	0	584	38	6	
2	0	0	0	0	512	464	0	582	38	6	
3	0	0	0	0	511	464	0	570	38	6	
4	0	0	0	0	504	468	0	557	38	6	
5	0	0	0	0	505	470	0	544	38	6	
6	0	0	0	0	507	468	0	538	38	6	
7	0	0	0	0	503	467	0	532	38	6	
8	0	0	0	0	508	464	0	529	38	6	
9	0	0	0	0	516	464	0	524	38	6	
10	0	0	0	0	515	463	0	536	38	6	
11	0	0	0	0	504	463	0	558	38	6	
12	0	0	0	0	512	464	0	568	38	6	
13	0	0	0	0	505	466	0	584	38	6	
14	0	0	0	0	504	467	0	595	38	7	
15	0	0	0	0	505	467	0	585	38	6	
0	0	0	0	0	508	467	0	575	38	6	
1	0	0	0	0	508	469	0	571	38	6	
2	0	0	0	0	509	472	0	560	38	6	
3	0	0	0	0	507	474	0	552	38	6	
4	0	0	0	0	504	476	0	543	38	6	
5	0	0	0	0	507	478	0	537	38	6	
6	0	0	0	0	506	480	0	533	38	6	
7	0	0	0	0	518	481	0	530	38	6	
8	0	0	0	0	510	481	0	530	38	6	
9	0	0	0	0	509	480	0	529	38	6	
10	0	0	0	0	502	477	0	527	38	6	
11	0	0	0	0	504	478	0	528	38	6	
12	0	0	0	0	510	479	0	524	38	6	
13	0	0	0	0	505	480	0	539	38	6	
14	0	0	0	0	505	482	0	561	38	6	
15	0	0	0	0	510	483	0	571	38	6	
0	0	0	0	0	512	481	0	585	38	6	
1	0	0	0	0	504	481	0	590	38	6	
2	0	0	0	0	509	483	0	578	38	6	
3	0	0	0	0	513	485	0	566	38	6	
4	0	0	0	0	504	487	0	551	38	6	
5	0	0	0	0	510	488	0	540	38	6	
6	0	0	0	0	509	487	0	531	38	6	
7	0	0	0	0	502	486	0	526	38	7	
8	0	0	0	0	510	485	0	520	38	6	
9	0	0	0	0	507	484	0	516	38	6	
10	0	0	0	0	510	484	0	535	38	6	
11	0	0	0	0	519	486	0	547	38	6	
12	0	0	0	0	503	485	0	546	38	6	
13	0	0	0	0	505	485	0	541	38	6	
14	0	0	0	0	504	484	0	535	38	6	
15	0	0	0	0	510	485	0	529	38	6	
0	0	0	0	0	507	487	0	543	38	6	
1	0	0	0	0	508	487	0	557	38	6	
2	0	0	0	0	507	485	0	557	38	6	
3	0	0	0	0	503	485	0	550	38	6	
4	0	0	0	0	508	484	0	551	38	6	
5	0	0	0	0	504	484	0	540	38	6	
6	0	0	0	0	502	487	0	545	38	7	
7	0	0	0	0	506	491	0	521	38	6	
8	0	0	0	0	508	494	0	516	38	6	
9	0	0	0	0	512	497	0	510	38	6	
10	0	0	0	0	507	500	0	505	38	6	
11	0	0	0	0	515	504	0	516	38	6	
12	0	0	0	0	505	509	0	537	38	6	
13	0	0	0	0	502	517	0	542	38	6	
14	0	0	0	0	510	524	0	536	38	6	
15	0	0	0	0	506	529	0	527	38	6	
0	0	0	0	0	512	537	0	517	38	7	
1	0	0	0	0	505	540	0	523	38	6	
2	0	0	0	0	516	542	0	536	38	6	
3	0	0	0	0	514	544	0	539	38	6	
4	0	0	0	0	505	546	0	528	38	6	
5	0	0	0	0	499	551	0	517	38	6	
6	0	0	0	0	504	558	0	506	38	6	
7	0	0	0	0	511	566	0	504	38	6	
8	0	0	0	0	506	575	0	519	38	6	
9	0	0	0	0	510	583	0	529	38	6	
10	0	0	0	0	503	591	0	536	38	6	
11	0	0	0	0	507	599	0	540	38	6	
12	0	0	0	0	508	606	0	541	38	6	
13	0	0	0	0	504	611	0	530	38	6	
14	0	0	0	0	516	616	0	520	38	6	
15	0	0	0	0	504	620	0	519	38	6	
0	0	0	0	0	508	624	0	527	38	6	
1	0	0	0	0	511	627	0	538	38	6	
2	0	0	0	0	510	629	0	557	38	6	
3	0	0	0	0	512	630	0	562	38	6	
4	0	0	0	0	509	633	0	554	38	6	
5	0	0	0	0	503	634	0	539	38	6	
6	0	0	0	0	500	636	0	528	38	6	
7	0	0	0	0	511	636	0	525	38	6	
8	0	0	0	0	508	636	0	516	38	6	
9	0	0	0	0	511	636	0	520	38	6	
10	0	0	0	0	508	633	0	539	38	6	
11	0	0	0	0	512	618	0	540	38	6	
12	0	0	0	0	504	592	0	532	38	6	
13	0	0	0	0	514	558	0	521	38	6	
14	0	0	0	0	508	524	0	510	38	6	
15	0	0	0	0	504	489	0	502	38	6	
0	0	0	0	0	505	457	0	500	38	6	
1	0	0	0	0	508	425	0	520	38	6	
2	0	0	0	0	504	398	0	527	38	6	
3	0	0	0	0	505	375	0	531	38	6	
4	0	0	0	0	510	359	0	514	38	6	
5	0	0	0	0	511	346	0	506	38	6	
6	0	0	0	0	508	336	0	498	38	6	
7	0	0	0	0	504	330	0	491	38	6	
8	0	0	0	0	504	329	0	499	38	6	
9	0	0	0	0	504	333	0	515	38	6	
10	0	0	0	0	505	340	0	518	38	6	
11	0	0	0	0	504	350	0	514	38	6	
12	0	0	0	0	512	359	0	506	38	6	
13	0	0	0	0	513	370	0	502	38	6	
14	0	0	0	0	503	381	0	496	38	6	
15	0	0	0	0	500	391	0	496	38	6	
0	0	0	0	0	513	401	0	496	38	6	
1	0	0	0	0	512	413	0	491	38	6	
2	0	0	0	0	511	426	0	504	38	6	
3	0	0	0	0	515	440	0	526	38	6	
4	0	0	0	0	508	450	0	535	38	6	
5	0	0	0	0	500	459	0	531	38	6	
6	0	0	0	0	505	466	0	544	38	6	
7	0	0	0	0	508	472	0	551	38	6	
8	0	0	0	0	507	477	0	547	38	6	
9	0	0	0	0	506	483	0	533	38	6	
10	0	0	0	0	508	486	0	524	38	6	
11	0	0	0	0	511	489	0	524	38	6	
12	0	0	0	0	501	494	0	519	38	6	
13	0	0	0	0	517	496	0	512	38	6	
14	0	0	0	0	505	495	0	508	38	6	
15	0	0	0	0	511	497	0	504	38	6	
0	0	0	0	0	512	501	0	500	38	6	
1	0	0	0	0	508	503	0	499	38	6	
2	0	0	0	0	511	503	0	505	38	6	
3	0	0	0	0	507	502	0	532	38	6	
4	0	0	0	0	511	500	0	544	38	6	
5	0	0	0	0	506	501	0	540	38	6	
6	0	0	0	0	510	502	0	533	38	6	
7	0	0	0	0	510	502	0	525	38	6	
8	0	0	0	0	504	502	0	521	38	6	
9	0	0	0	0	502	503	0	517	38	6	
10	0	0	0	0	503	504	0	533	38	6	
11	0	0	0	0	508	506	0	548	38	7	
12	0	0	0	0	509	508	0	548	38	6	
13	0	0	0	0	508	509	0	546	38	6	
14	0	0	0	0	508	507	0	557	38	6	
15	0	0	0	0	513	505	0	559	38	6	
0	0	0	0	0	512	504	0	545	38	6	
1	0	0	0	0	508	504	0	536	38	6	
2	0	0	0	0	508	501	0	524	38	6	
3	0	0	0	0	509	501	0	516	38	6	
4	0	0	0	0	507	503	0	509	38	6	
5	0	0	0	0	505	505	0	506	38	6	
6	0	0	0	0	507	505	0	502	38	6	
7	0	0	0	0	508	506	0	500	38	6	
8	0	0	0	0	507	508	0	498	38	6	
9	0	0	0	0	514	509	0	495	38	6	
10	0	0	0	0	508	511	0	495	38	7	
11	0	0	0	0	510	513	0	494	38	6	
12	0	0	0	0	505	513	0	497	38	6	
13	0	0	0	0	505	513	0	522	38	6	
14	0	0	0	0	512	511	0	537	38	6	
15	0	0	0	0	504	509	0	548	38	6	
0	0	0	0	0	503	508	0	561	38	6	
1	0	0	0	0	507	508	0	557	38	6	
2	0	0	0	0	508	508	0	555	38	6	
3	0	0	0	0	514	508	0	542	38	6	
4	0	0	0	0	509	510	0	532	38	6	
5	0	0	0	0	508	511	0	521	38	6	
6	0	0	0	0	505	513	0	514	38	6	
7	0	0	0	0	503	514	0	509	38	6	
8	0	0	0	0	515	515	0	504	38	6	
9	0	0	0	0	515	515	0	503	38	6	
10	0	0	0	0	512	513	0	503	38	6	
11	0	0	0	0	502	512	0	501	38	6	
12	0	0	0	0	502	511	0	503	38	6	
13	0	0	0	0	513	509	0	498	38	6	
14	0	0	0	0	514	508	0	498	38	6	
15	0	0	0	0	504	508	0	497	38	6	
0	0	0	0	0	503	509	0	499	38	6	
1	0	0	0	0	507	510	0	496	38	6	
2	0	0	0	0	505	510	0	512	38	6	
3	0	0	0	0	512	508	0	531	38	6	
4	0	0	0	0	507	505	0	542	38	6	
5	0	0	0	0	509	504	0	564	38	6	
6	0	0	0	0	510	504	0	565	38	6	
7	0	0	0	0	503	505	0	574	38	6	
8	0	0	0	0	507	506	0	574	38	6	
9	0	0	0	0	505	506	0	560	38	6	
10	0	0	0	0	509	508	0	544	38	6	
11	0	0	0	0	508	511	0	542	38	6	
12	0	0	0	0	506	512	0	528	38	6	
13	0	0	0	0	514	511	0	536	38	6	
14	0	0	0	0	509	510	0	513	38	6	
15	0	0	0	0	504	509	0	510	38	6	
0	0	0	0	0	510	508	0	505	38	6	
1	0	0	0	0	511	507	0	503	38	6	
2	0	0	0	0	508	508	0	515	38	6	
3	0	0	0	0	510	510	0	541	38	6	
4	0	0	0	0	504	510	0	549	38	6	
5	0	0	0	0	515	511	0	542	38	6	
6	0	0	0	0	506	510	0	533	38	6	
7	0	0	0	0	499	512	0	523	38	6	
8	0	0	0	0	515	514	0	522	38	6	
9	0	0	0	0	509	517	0	537	38	6	
10	0	0	0	0	511	519	0	540	38	6	
11	0	0	0	0	503	518	0	534	38	6	
12	0	0	0	0	505	519	0	526	38	6	
13	0	0	0	0	510	520	0	519	38	6	
14	0	0	0	0	507	520	0	514	38	6	
15	0	0	0	0	507	519	0	511	38	6	
0	0	0	0	0	511	516	0	508	38	6	
1	0	0	0	0	512	514	0	508	38	6	
2	0	0	0	0	507	513	0	513	38	6	
3	0	0	0	0	503	513	0	540	38	6	
4	0	0	0	0	505	514	0	547	38	6	
5	0	0	0	0	510	514	0	561	38	6	
6	0	0	0	0	507	519	0	571	38	6	
7	0	0	0	0	504	523	0	561	38	6	
8	0	0	0	0	505	525	0	549	38	6	
9	0	0	0	0	502	526	0	544	38	6	
10	0	0	0	0	512	524	0	532	38	6	
11	0	0	0	0	505	521	0	523	38	6	
12	0	0	0	0	514	518	0	516	38	6	
13	0	0	0	0	508	515	0	510	38	6	
14	0	0	0	0	506	514	0	508	38	6	
15	0	0	0	0	509	511	0	501	38	6	
0	0	0	0	0	506	511	0	500	38	6	
1	0	0	0	0	502	512	0	496	38	6	
2	0	0	0	0	510	513	0	497	38	6	
3	0	0	0	0	505	515	0	492	38	6	
4	0	0	0	0	507	515	0	492	38	6	
5	0	0	0	0	508	513	0	502	38	6	
6	0	0	0	0	507	513	0	524	38	6	
7	0	0	0	0	508	513	0	530	38	6	
8	0	0	0	0	504	512	0	546	38	6	
9	0	0	0	0	508	514	0	550	38	6	
10	0	0	0	0	505	512	0	554	38	6	
11	0	0	0	0	508	512	0	567	38	6	
12	0	0	0	0	503	513	0	559	38	6	
13	0	0	0	0	504	515	0	544	38	6	
14	0	0	0	0	509	517	0	527	38	6	
15	0	0	0	0	511	518	0	515	38	6	
0	0	0	0	0	512	519	0	513	38	6	
1	0	0	0	0	512	524	0	528	38	6	
2	0	0	0	0	509	526	0	532	38	6	
3	0	0	0	0	503	527	0	526	38	6	
4	0	0	0	0	501	527	0	519	38	6	
5	0	0	0	0	508	526	0	512	38	6	
6	0	0	0	0	511	526	0	507	38	6	
7	0	0	0	0	506	528	0	504	38	7	
8	0	0	0	0	509	529	0	498	38	6	
9	0	0	0	0	507	530	0	499	38	6	
10	0	0	0	0	505	528	0	502	38	6	
11	0	0	0	0	509	527	0	527	38	6	
12	0	0	0	0	512	527	0	535	38	6	
13	0	0	0	0	508	529	0	531	38	6	
14	0	0	0	0	506	529	0	536	38	6	
15	0	0	0	0	507	528	0	554	38	6	
0	0	0	0	0	503	526	0	551	38	6	
1	0	0	0	0	497	525	0	540	38	6	
2	0	0	0	0	512	524	0	524	38	6	
3	0	0	0	0	507	527	0	512	38	6	
4	0	0	0	0	511	528	0	502	38	6	
5	0	0	0	0	505	529	0	497	38	6	
6	0	0	0	0	505	530	0	491	38	6	
7	0	0	0	0	505	529	0	487	38	6	
8	0	0	0	0	505	527	0	498	38	6	
9	0	0	0	0	504	525	0	515	38	6	
10	0	0	0	0	510	522	0	519	38	6	
11	0	0	0	0	508	523	0	513	38	6	
12	0	0	0	0	511	527	0	510	38	6	
13	0	0	0	0	509	531	0	499	38	6	
14	0	0	0	0	510	531	0	494	38	6	
15	0	0	0	0	505	530	0	489	38	6	
0	0	0	0	0	511	531	0	487	38	6	
1	0	0	0	0	503	532	0	483	38	6	
2	0	0	0	0	511	535	0	496	38	6	
3	0	0	0	0	503	536	0	520	38	6	
4	0	0	0	0	510	537	0	526	38	6	
5	0	0	0	0	513	539	0	521	38	6	
6	0	0	0	0	503	538	0	530	38	6	
7	0	0	0	0	507	538	0	536	38	7	
8	0	0	0	0	504	535	0	524	38	6	
9	0	0	0	0	508	536	0	510	38	6	
10	0	0	0	0	508	536	0	496	38	6	
11	0	0	0	0	507	536	0	502	38	6	
12	0	0	0	0	508	538	0	499	38	6	
13	0	0	0	0	510	538	0	498	38	6	
14	0	0	0	0	507	537	0	493	38	6	
15	0	0	0	0	504	537	0	506	38	7	
0	0	0	0	0	517	537	0	487	38	6	
1	0	0	0	0	509	540	0	485	38	7	
2	0	0	0	0	512	541	0	482	38	6	
3	0	0	0	0	502	540	0	486	38	6	
4	0	0	0	0	507	539	0	508	38	6	
5	0	0	0	0	508	537	0	526	38	6	
6	0	0	0	0	509	538	0	537	38	6	
7	0	0	0	0	507	540	0	551	38	6	
8	0	0	0	0	501	540	0	544	38	6	
9	0	0	0	0	510	542	0	529	38	7	
10	0	0	0	0	511	541	0	515	38	6	
11	0	0	0	0	508	543	0	503	38	6	
12	0	0	0	0	507	542	0	497	38	6	
13	0	0	0	0	506	540	0	489	38	6	
14	0	0	0	0	508	537	0	489	38	6	
15	0	0	0	0	504	535	0	483	38	6	
0	0	0	0	0	508	534	0	498	38	6	
1	0	0	0	0	507	536	0	511	38	6	
2	0	0	0	0	508	538	0	516	38	6	
3	0	0	0	0	507	537	0	509	38	6	
4	0	0	0	0	512	533	0	510	38	6	
5	0	0	0	0	506	531	0	498	38	6	
6	0	0	0	0	511	529	0	496	38	6	
7	0	0	0	0	502	528	0	491	38	6	
8	0	0	0	0	496	527	0	491	38	6	
9	0	0	0	0	508	526	0	483	38	6	
10	0	0	0	0	509	525	0	496	38	6	
11	0	0	0	0	505	523	0	518	38	6	
12	0	0	0	0	513	521	0	525	38	6	
13	0	0	0	0	509	520	0	520	38	6	
14	0	0	0	0	503	519	0	532	38	6	
15	0	0	0	0	500	518	0	539	38	6	
0	0	0	0	0	511	515	0	534	38	6	
1	0	0	0	0	513	513	0	521	38	6	
2	0	0	0	0	504	509	0	510	38	7	
3	0	0	0	0	507	507	0	499	38	6	
4	0	0	0	0	507	505	0	502	38	6	
5	0	0	0	0	514	506	0	500	38	6	
6	0	0	0	0	507	507	0	497	38	6	
7	0	0	0	0	507	509	0	493	38	6	
8	0	0	0	0	516	510	0	487	38	6	
9	0	0	0	0	506	511	0	499	38	6	
10	0	0	0	0	509	511	0	520	38	6	
11	0	0	0	0	511	510	0	528	38	6	
12	0	0	0	0	508	510	0	521	38	6	
13	0	0	0	0	508	510	0	512	38	6	
14	0	0	0	0	502	511	0	502	38	6	
15	0	0	0	0	504	510	0	512	38	6	
0	0	0	0	0	505	509	0	491	38	6	
1	0	0	0	0	510	510	0	491	38	6	
2	0	0	0	0	508	510	0	483	38	6	
3	0	0	0	0	499	511	0	500	38	6	
4	0	0	0	0	507	509	0	517	38	6	
5	0	0	0	0	504	504	0	528	38	6	
6	0	0	0	0	503	499	0	544	38	6	
7	0	0	0	0	510	497	0	548	38	6	
8	0	0	0	0	507	500	0	535	38	6	
9	0	0	0	0	515	502	0	524	38	6	
10	0	0	0	0	508	501	0	511	38	6	
11	0	0	0	0	507	501	0	505	38	6	
12	0	0	0	0	508	499	0	496	38	6	
13	0	0	0	0	502	495	0	496	38	6	
14	0	0	0	0	507	493	0	491	38	6	
15	0	0	0	0	504	491	0	500	38	6	
0	0	0	0	0	515	488	0	492	38	6	
1	0	0	0	0	506	487	0	488	38	6	
2	0	0	0	0	506	487	0	488	38	7	
3	0	0	0	0	508	485	0	487	38	6	
4	0	0	0	0	508	484	0	492	38	6	
5	0	0	0	0	512	483	0	517	38	6	
6	0	0	0	0	511	482	0	530	38	6	
7	0	0	0	0	504	479	0	541	38	6	
8	0	0	0	0	511	476	0	554	38	6	
9	0	0	0	0	508	473	0	550	38	6	
10	0	0	0	0	502	470	0	547	38	6	
11	0	0	0	0	498	467	0	548	38	6	
12	0	0	0	0	504	467	0	539	38	6	
13	0	0	0	0	509	465	0	528	38	6	
14	0	0	0	0	510	464	0	519	38	6	
15	0	0	0	0	509	465	0	512	38	6	
0	0	0	0	0	513	464	0	505	38	6	
1	0	0	0	0	505	468	0	503	38	6	
2	0	0	0	0	510	472	0	499	38	6	
3	0	0	0	0	508	475	0	499	38	6	
4	0	0	0	0	509	476	0	497	38	6	
5	0	0	0	0	505	473	0	493	38	6	
6	0	0	0	0	504	472	0	492	38	6	
7	0	0	0	0	511	472	0	499	38	6	
8	0	0	0	0	504	472	0	527	38	6	
9	0	0	0	0	510	469	0	536	38	6	
10	0	0	0	0	508	467	0	555	38	6	
11	0	0	0	0	515	465	0	567	38	6	
12	0	0	0	0	506	465	0	562	38	6	
13	0	0	0	0	504	467	0	548	38	6	
14	0	0	0	0	501	470	0	537	38	6	
15	0	0	0	0	510	472	0	523	38	6	
0	0	0	0	0	509	472	0	541	38	6	
1	0	0	0	0	504	471	0	541	38	6	
2	0	0	0	0	508	468	0	541	38	6	
3	0	0	0	0	509	467	0	534	38	6	
4	0	0	0	0	512	465	0	537	38	6	
5	0	0	0	0	511	462	0	531	38	6	
6	0	0	0	0	503	462	0	523	38	6	
7	0	0	0	0	508	466	0	515	38	6	
8	0	0	0	0	508	471	0	511	38	6	
9	0	0	0	0	511	474	0	506	38	6	
10	0	0	0	0	507	474	0	518	38	6	
11	0	0	0	0	496	474	0	541	38	6	
12	0	0	0	0	513	474	0	549	38	6	
13	0	0	0	0	510	475	0	543	38	6	
14	0	0	0	0	508	476	0	534	38	6	
15	0	0	0	0	509	476	0	525	38	6	
0	0	0	0	0	510	473	0	527	38	6	
1	0	0	0	0	504	473	0	545	38	6	
2	0	0	0	0	501	474	0	547	38	6	
3	0	0	0	0	512	476	0	541	38	6	
4	0	0	0	0	507	476	0	531	38	6	
5	0	0	0	0	507	477	0	524	38	6	
6	0	0	0	0	512	477	0	517	38	6	
7	0	0	0	0	505	478	0	514	38	6	
8	0	0	0	0	500	479	0	508	38	6	
9	0	0	0	0	504	480	0	505	38	6	
10	0	0	0	0	514	480	0	510	38	6	
11	0	0	0	0	510	481	0	535	38	6	
12	0	0	0	0	512	483	0	542	38	6	
13	0	0	0	0	504	483	0	537	38	6	
14	0	0	0	0	507	484	0	540	38	6	
15	0	0	0	0	501	483	0	552	38	6	
0	0	0	0	0	504	480	0	547	38	6	
1	0	0	0	0	503	480	0	537	38	6	
2	0	0	0	0	505	479	0	536	38	6	
3	0	0	0	0	514	478	0	527	38	6	
4	0	0	0	0	514	479	0	518	38	6	
5	0	0	0	0	508	478	0	512	38	6	
6	0	0	0	0	505	478	0	505	38	6	
7	0	0	0	0	510	479	0	500	38	6	
8	0	0	0	0	506	478	0	498	38	6	
9	0	0	0	0	503	477	0	504	38	6	
10	0	0	0	0	515	477	0	527	38	6	
11	0	0	0	0	512	477	0	537	38	6	
12	0	0	0	0	514	475	0	533	38	6	
13	0	0	0	0	507	473	0	527	38	6	
14	0	0	0	0	506	472	0	519	38	6	
15	0	0	0	0	504	471	0	518	38	6	
0	0	0	0	0	507	472	0	534	38	6	
1	0	0	0	0	512	472	0	542	38	6	
2	0	0	0	0	501	473	0	540	38	6	
3	0	0	0	0	506	474	0	530	38	6	
4	0	0	0	0	504	476	0	527	38	6	
5	0	0	0	0	515	478	0	513	38	6	
6	0	0	0	0	508	479	0	506	38	6	
7	0	0	0	0	508	481	0	502	38	7	
8	0	0	0	0	505	483	0	497	38	6	
9	0	0	0	0	505	484	0	494	38	6	
10	0	0	0	0	504	483	0	516	38	6	
11	0	0	0	0	511	480	0	528	38	6	
12	0	0	0	0	512	480	0	527	38	6	
13	0	0	0	0	506	479	0	519	38	6	
14	0	0	0	0	508	477	0	513	38	6	
15	0	0	0	0	508	477	0	507	38	6	
0	0	0	0	0	508	476	0	518	38	6	
1	0	0	0	0	505	480	0	529	38	6	
2	0	0	0	0	511	482	0	529	38	6	
3	0	0	0	0	516	484	0	527	38	6	
4	0	0	0	0	506	486	0	527	38	6	
5	0	0	0	0	505	487	0	520	38	6	
6	0	0	0	0	502	489	0	511	38	6	
7	0	0	0	0	506	488	0	505	38	6	
8	0	0	0	0	508	485	0	498	38	6	
9	0	0	0	0	505	483	0	496	38	6	
10	0	0	0	0	505	481	0	489	38	6	
11	0	0	0	0	508	486	0	501	38	6	
12	0	0	0	0	503	492	0	524	38	6	
13	0	0	0	0	510	493	0	528	38	6	
14	0	0	0	0	512	492	0	523	38	6	
15	0	0	0	0	506	489	0	532	38	6	
0	0	0	0	0	508	485	0	537	38	6	
1	0	0	0	0	515	483	0	528	38	6	
2	0	0	0	0	502	482	0	517	38	6	
3	0	0	0	0	511	483	0	508	38	6	
4	0	0	0	0	509	485	0	500	38	6	
5	0	0	0	0	513	488	0	494	38	6	
6	0	0	0	0	503	487	0	493	38	6	
7	0	0	0	0	512	486	0	489	38	6	
8	0	0	0	0	503	485	0	490	38	6	
9	0	0	0	0	505	485	0	505	38	6	
10	0	0	0	0	511	485	0	530	38	6	
11	0	0	0	0	505	487	0	530	38	6	
12	0	0	0	0	504	485	0	525	38	6	
13	0	0	0	0	503	485	0	514	38	6	
14	0	0	0	0	507	485	0	512	38	6	
15	0	0	0	0	508	485	0	510	38	6	
0	0	0	0	0	508	487	0	523	38	6	
1	0	0	0	0	508	489	0	522	38	6	
2	0	0	0	0	503	491	0	537	38	6	
3	0	0	0	0	515	493	0	542	38	6	
4	0	0	0	0	503	495	0	535	38	6	
5	0	0	0	0	512	494	0	531	38	6	
6	0	0	0	0	509	492	0	527	38	6	
7	0	0	0	0	511	491	0	518	38	6	
8	0	0	0	0	505	493	0	528	38	6	
9	0	0	0	0	506	495	0	542	38	6	
10	0	0	0	0	501	496	0	540	38	6	
11	0	0	0	0	507	497	0	527	38	6	
12	0	0	0	0	502	499	0	517	38	6	
13	0	0	0	0	501	501	0	508	38	6	
14	0	0	0	0	513	502	0	499	38	6	
15	0	0	0	0	505	503	0	498	38	6	
0	0	0	0	0	505	499	0	493	38	6	
1	0	0	0	0	512	496	0	494	38	6	
2	0	0	0	0	513	496	0	507	38	6	
3	0	0	0	0	514	497	0	528	38	6	
4	0	0	0	0	507	497	0	523	38	6	
5	0	0	0	0	510	498	0	533	38	6	
6	0	0	0	0	507	499	0	507	38	6	
7	0	0	0	0	507	502	0	517	38	6	
8	0	0	0	0	501	506	0	524	38	7	
9	0	0	0	0	506	507	0	516	38	6	
10	0	0	0	0	508	507	0	508	38	6	
11	0	0	0	0	508	507	0	512	38	6	
12	0	0	0	0	507	507	0	490	38	6	
13	0	0	0	0	515	505	0	487	38	6	
14	0	0	0	0	500	502	0	482	38	6	
15	0	0	0	0	509	502	0	482	38	6	
0	0	0	0	0	513	499	0	476	38	6	
1	0	0	0	0	504	500	0	494	38	6	
2	0	0	0	0	501	504	0	512	38	6	
3	0	0	0	0	509	503	0	517	38	6	
4	0	0	0	0	511	503	0	512	38	6	
5	0	0	0	0	506	505	0	515	38	6	
6	0	0	0	0	504	504	0	505	38	6	
7	0	0	0	0	509	504	0	512	38	6	
8	0	0	0	0	500	504	0	524	38	6	
9	0	0	0	0	507	504	0	522	38	6	
10	0	0	0	0	502	504	0	514	38	6	
11	0	0	0	0	508	503	0	504	38	6	
12	0	0	0	0	504	503	0	496	38	6	
13	0	0	0	0	511	502	0	490	38	6	
14	0	0	0	0	502	501	0	486	38	6	
15	0	0	0	0	508	500	0	483	38	6	
0	0	0	0	0	512	501	0	477	38	6	
1	0	0	0	0	505	504	0	487	38	6	
2	0	0	0	0	513	507	0	510	38	6	
3	0	0	0	0	511	509	0	516	38	6	
4	0	0	0	0	510	510	0	515	38	6	
5	0	0	0	0	508	511	0	515	38	6	
6	0	0	0	0	508	512	0	510	38	6	
7	0	0	0	0	508	512	0	505	38	6	
8	0	0	0	0	508	512	0	524	38	6	
9	0	0	0	0	501	511	0	525	38	6	
10	0	0	0	0	501	510	0	518	38	6	
11	0	0	0	0	510	510	0	504	38	6	
12	0	0	0	0	512	512	0	494	38	6	
13	0	0	0	0	511	515	0	486	38	6	
14	0	0	0	0	509	518	0	481	38	6	
15	0	0	0	0	508	518	0	476	38	6	
0	0	0	0	0	501	517	0	475	38	6	
1	0	0	0	0	502	513	0	479	38	6	
2	0	0	0	0	505	511	0	502	38	6	
3	0	0	0	0	511	510	0	510	38	6	
4	0	0	0	0	503	508	0	504	38	6	
5	0	0	0	0	505	508	0	496	38	6	
6	0	0	0	0	509	508	0	487	38	6	
7	0	0	0	0	506	508	0	479	38	6	
8	0	0	0	0	510	508	0	469	38	6	
9	0	0	0	0	515	508	0	463	38	6	
10	0	0	0	0	514	509	0	460	38	7	
11	0	0	0	0	505	511	0	461	38	6	
12	0	0	0	0	505	512	0	461	38	6	
13	0	0	0	0	507	512	0	471	38	6	
14	0	0	0	0	511	510	0	460	38	6	
15	0	0	0	0	506	510	0	474	38	6	
0	0	0	0	0	502	507	0	457	38	6	
1	0	0	0	0	506	507	0	459	38	6	
2	0	0	0	0	511	507	0	455	38	6	
3	0	0	0	0	509	507	0	465	38	6	
4	0	0	0	0	506	511	0	460	38	7	
5	0	0	0	0	509	513	0	466	38	6	
6	0	0	0	0	512	513	0	467	38	6	
7	0	0	0	0	511	512	0	473	38	6	
8	0	0	0	0	508	512	0	462	38	6	
9	0	0	0	0	507	512	0	463	38	6	
10	0	0	0	0	503	512	0	462	38	6	
11	0	0	0	0	509	512	0	467	38	6	
12	0	0	0	0	511	511	0	469	38	6	
13	0	0	0	0	507	511	0	489	38	6	
14	0	0	0	0	505	510	0	507	38	6	
15	0	0	0	0	507	507	0	515	38	6	
0	0	0	0	0	508	506	0	532	38	6	
1	0	0	0	0	507	508	0	536	38	6	
2	0	0	0	0	509	509	0	544	38	6	
3	0	0	0	0	503	511	0	548	38	6	
4	0	0	0	0	512	512	0	543	38	6	
5	0	0	0	0	505	511	0	553	38	6	
6	0	0	0	0	502	511	0	550	38	6	
7	0	0	0	0	507	514	0	554	38	6	
8	0	0	0	0	510	516	0	553	38	6	
9	0	0	0	0	509	514	0	547	38	6	
10	0	0	0	0	504	517	0	555	38	6	
11	0	0	0	0	512	515	0	546	38	6	
12	0	0	0	0	510	513	0	548	38	6	
13	0	0	0	0	503	511	0	548	38	6	
14	0	0	0	0	508	507	0	543	38	6	
15	0	0	0	0	510	505	0	551	38	6	
0	0	0	0	0	511	505	0	542	38	6	
1	0	0	0	0	508	506	0	524	38	6	
2	0	0	0	0	505	504	0	517	38	6	
3	0	0	0	0	514	502	0	508	38	6	
4	0	0	0	0	505	504	0	499	38	6	
5	0	0	0	0	501	508	0	492	38	6	
6	0	0	0	0	508	510	0	483	38	6	
7	0	0	0	0	510	510	0	483	38	6	
8	0	0	0	0	504	508	0	478	38	6	
9	0	0	0	0	508	508	0	479	38	6	
10	0	0	0	0	498	508	0	475	38	6	
11	0	0	0	0	509	510	0	473	38	6	
12	0	0	0	0	502	511	0	474	38	6	
13	0	0	0	0	508	510	0	482	38	6	
14	0	0	0	0	504	506	0	506	38	6	
15	0	0	0	0	510	504	0	514	38	6	
0	0	0	0	0	505	502	0	529	38	6	
1	0	0	0	0	507	503	0	542	38	6	
2	0	0	0	0	506	504	0	537	38	6	
3	0	0	0	0	511	502	0	527	38	6	
4	0	0	0	0	511	499	0	516	38	6	
5	0	0	0	0	504	497	0	507	38	6	
6	0	0	0	0	511	498	0	500	38	6	
7	0	0	0	0	512	498	0	495	38	6	
8	0	0	0	0	508	500	0	493	38	6	
9	0	0	0	0	510	502	0	490	38	6	
10	0	0	0	0	515	501	0	507	38	6	
11	0	0	0	0	508	501	0	526	38	6	
12	0	0	0	0	504	500	0	528	38	6	
13	0	0	0	0	502	501	0	528	38	6	
14	0	0	0	0	504	500	0	543	38	6	
15	0	0	0	0	509	500	0	544	38	6	
0	0	0	0	0	510	501	0	535	38	6	
1	0	0	0	0	508	498	0	531	38	6	
2	0	0	0	0	508	494	0	529	38	6	
3	0	0	0	0	509	492	0	524	38	6	
4	0	0	0	0	505	492	0	514	38	6	
5	0	0	0	0	507	495	0	514	38	6	
6	0	0	0	0	504	498	0	504	38	6	
7	0	0	0	0	508	499	0	500	38	6	
8	0	0	0	0	508	502	0	496	38	6	
9	0	0	0	0	505	503	0	493	38	6	
10	0	0	0	0	507	504	0	491	38	6	
11	0	0	0	0	510	503	0	489	38	6	
12	0	0	0	0	503	501	0	488	38	6	
13	0	0	0	0	506	500	0	488	38	6	
14	0	0	0	0	507	501	0	506	38	6	
15	0	0	0	0	509	504	0	526	38	6	
0	0	0	0	0	509	507	0	532	38	6	
1	0	0	0	0	508	508	0	551	38	6	
2	0	0	0	0	512	508	0	550	38	6	
3	0	0	0	0	510	508	0	537	38	6	
4	0	0	0	0	511	509	0	524	38	6	
5	0	0	0	0	510	509	0	513	38	6	
6	0	0	0	0	503	508	0	504	38	6	
7	0	0	0	0	512	508	0	499	38	6	
8	0	0	0	0	507	509	0	493	38	6	
9	0	0	0	0	504	512	0	492	38	6	
10	0	0	0	0	514	514	0	496	38	6	
11	0	0	0	0	505	518	0	522	38	6	
12	0	0	0	0	510	523	0	531	38	6	
13	0	0	0	0	507	524	0	527	38	6	
14	0	0	0	0	506	521	0	533	38	6	
15	0	0	0	0	509	518	0	547	38	6	
0	0	0	0	0	505	517	0	543	38	6	
1	0	0	0	0	507	515	0	534	38	6	
2	0	0	0	0	504	512	0	534	38	6	
3	0	0	0	0	509	511	0	528	38	6	
4	0	0	0	0	504	512	0	521	38	6	
5	0	0	0	0	508	512	0	516	38	6	
6	0	0	0	0	508	514	0	510	38	6	
7	0	0	0	0	508	516	0	504	38	6	
8	0	0	0	0	511	519	0	500	38	6	
9	0	0	0	0	512	519	0	506	38	6	
10	0	0	0	0	508	518	0	530	38	6	
11	0	0	0	0	507	518	0	540	38	6	
12	0	0	0	0	507	518	0	535	38	6	
13	0	0	0	0	505	520	0	528	38	6	
14	0	0	0	0	508	521	0	521	38	6	
15	0	0	0	0	504	523	0	519	38	6	
0	0	0	0	0	500	525	0	534	38	6	
1	0	0	0	0	518	528	0	543	38	6	
2	0	0	0	0	510	532	0	539	38	6	
3	0	0	0	0	502	532	0	532	38	6	
4	0	0	0	0	507	533	0	525	38	6	
5	0	0	0	0	516	533	0	519	38	6	
6	0	0	0	0	510	530	0	511	38	6	
7	0	0	0	0	508	528	0	508	38	7	
8	0	0	0	0	503	525	0	503	38	6	
9	0	0	0	0	510	523	0	501	38	6	
10	0	0	0	0	510	523	0	519	38	6	
11	0	0	0	0	512	525	0	532	38	6	
12	0	0	0	0	502	527	0	529	38	6	
13	0	0	0	0	505	528	0	523	38	6	
14	0	0	0	0	510	527	0	515	38	6	
15	0	0	0	0	513	526	0	509	38	6	
0	0	0	0	0	506	523	0	519	38	6	
1	0	0	0	0	505	522	0	531	38	6	
2	0	0	0	0	505	522	0	528	38	6	
3	0	0	0	0	504	525	0	524	38	6	
4	0	0	0	0	505	527	0	522	38	6	
5	0	0	0	0	515	527	0	514	38	6	
6	0	0	0	0	508	529	0	504	38	6	
7	0	0	0	0	511	529	0	497	38	6	
8	0	0	0	0	506	530	0	493	38	6	
9	0	0	0	0	507	533	0	489	38	6	
10	0	0	0	0	510	532	0	483	38	6	
11	0	0	0	0	507	534	0	496	38	6	
12	0	0	0	0	509	535	0	517	38	6	
13	0	0	0	0	504	533	0	522	38	6	
14	0	0	0	0	507	535	0	516	38	6	
15	0	0	0	0	511	539	0	506	38	6	
0	0	0	0	0	509	539	0	499	38	7	
1	0	0	0	0	504	540	0	490	38	6	
2	0	0	0	0	505	542	0	487	38	6	
3	0	0	0	0	506	544	0	481	38	6	
4	0	0	0	0	509	544	0	499	38	6	
5	0	0	0	0	512	544	0	512	38	6	
6	0	0	0	0	515	541	0	521	38	6	
7	0	0	0	0	504	539	0	536	38	6	
8	0	0	0	0	508	538	0	551	38	6	
9	0	0	0	0	504	537	0	520	38	6	
10	0	0	0	0	511	538	0	507	38	6	
11	0	0	0	0	509	537	0	496	38	6	
12	0	0	0	0	512	535	0	488	38	6	
13	0	0	0	0	505	532	0	482	38	6	
14	0	0	0	0	500	528	0	476	38	6	
15	0	0	0	0	504	527	0	475	38	6	
0	0	0	0	0	506	527	0	478	38	6	
1	0	0	0	0	505	527	0	500	38	6	
2	0	0	0	0	505	526	0	506	38	6	
3	0	0	0	0	508	525	0	501	38	6	
4	0	0	0	0	513	523	0	503	38	6	
5	0	0	0	0	507	521	0	502	38	6	
6	0	0	0	0	509	520	0	495	38	6	
7	0	0	0	0	506	519	0	488	38	6	
8	0	0	0	0	509	521	0	482	38	6	
9	0	0	0	0	504	523	0	491	38	6	
10	0	0	0	0	509	524	0	510	38	6	
11	0	0	0	0	502	522	0	513	38	6	
12	0	0	0	0	504	518	0	505	38	6	
13	0	0	0	0	507	512	0	495	38	6	
14	0	0	0	0	508	510	0	482	38	6	
15	0	0	0	0	507	507	0	478	38	6	
0	0	0	0	0	505	505	0	472	38	6	
1	0	0	0	0	510	503	0	469	38	6	
2	0	0	0	0	505	500	0	462	38	6	
3	0	0	0	0	500	500	0	483	38	6	
4	0	0	0	0	515	497	0	496	38	6	
5	0	0	0	0	513	494	0	504	38	6	
6	0	0	0	0	508	489	0	519	38	6	
7	0	0	0	0	506	487	0	520	38	6	
8	0	0	0	0	505	487	0	519	38	6	
9	0	0	0	0	504	487	0	524	38	6	
10	0	0	0	0	504	486	0	516	38	6	
11	0	0	0	0	508	483	0	504	38	6	
12	0	0	0	0	508	483	0	489	38	6	
13	0	0	0	0	504	487	0	480	38	6	
14	0	0	0	0	507	489	0	471	38	6	
15	0	0	0	0	509	489	0	467	38	6	
0	0	0	0	0	509	491	0	462	38	6	
1	0	0	0	0	502	494	0	457	38	6	
2	0	0	0	0	511	496	0	467	38	6	
3	0	0	0	0	509	496	0	492	38	6	
4	0	0	0	0	504	493	0	497	38	6	
5	0	0	0	0	511	488	0	493	38	6	
6	0	0	0	0	513	483	0	479	38	6	
7	0	0	0	0	512	484	0	469	38	6	
8	0	0	0	0	512	486	0	455	38	6	
9	0	0	0	0	499	489	0	446	38	6	
10	0	0	0	0	511	491	0	442	38	6	
11	0	0	0	0	508	492	0	442	38	6	
12	0	0	0	0	510	492	0	461	38	6	
13	0	0	0	0	519	492	0	486	38	6	
14	0	0	0	0	507	493	0	500	38	6	
15	0	0	0	0	503	494	0	515	38	6	
0	0	0	0	0	508	493	0	516	38	6	
1	0	0	0	0	503	495	0	518	38	6	
2	0	0	0	0	499	495	0	528	38	6	
3	0	0	0	0	511	496	0	522	38	6	
4	0	0	0	0	508	495	0	535	38	6	
5	0	0	0	0	508	494	0	534	38	6	
6	0	0	0	0	504	496	0	522	38	6	
7	0	0	0	0	510	496	0	508	38	6	
8	0	0	0	0	508	498	0	521	38	6	
9	0	0	0	0	515	501	0	516	38	6	
10	0	0	0	0	500	503	0	519	38	6	
11	0	0	0	0	504	506	0	503	38	6	
12	0	0	0	0	507	506	0	522	38	6	
13	0	0	0	0	508	500	0	516	38	6	
14	0	0	0	0	506	496	0	538	38	6	
15	0	0	0	0	511	493	0	521	38	6	
0	0	0	0	0	512	489	0	523	38	6	
1	0	0	0	0	505	487	0	523	38	6	
2	0	0	0	0	503	487	0	519	38	6	
3	0	0	0	0	502	487	0	524	38	6	
4	0	0	0	0	515	490	0	524	38	6	
5	0	0	0	0	504	495	0	509	38	6	
6	0	0	0	0	511	496	0	504	38	6	
7	0	0	0	0	510	498	0	513	38	6	
8	0	0	0	0	505	499	0	527	38	6	
9	0	0	0	0	507	500	0	509	38	6	
10	0	0	0	0	510	501	0	500	38	6	
11	0	0	0	0	513	500	0	488	38	6	
12	0	0	0	0	507	499	0	479	38	6	
13	0	0	0	0	501	499	0	472	38	6	
14	0	0	0	0	502	499	0	467	38	6	
15	0	0	0	0	505	499	0	465	38	6	
0	0	0	0	0	503	499	0	461	38	6	
1	0	0	0	0	508	502	0	460	38	6	
2	0	0	0	0	509	502	0	458	38	6	
3	0	0	0	0	509	500	0	455	38	6	
4	0	0	0	0	510	501	0	457	38	6	
5	0	0	0	0	505	502	0	456	38	6	
6	0	0	0	0	504	505	0	458	38	6	
7	0	0	0	0	509	507	0	457	38	6	
8	0	0	0	0	506	508	0	455	38	6	
9	0	0	0	0	502	513	0	455	38	6	
10	0	0	0	0	510	519	0	462	38	6	
11	0	0	0	0	508	522	0	490	38	6	
12	0	0	0	0	514	525	0	503	38	6	
13	0	0	0	0	516	529	0	520	38	6	
14	0	0	0	0	517	534	0	533	38	6	
15	0	0	0	0	508	540	0	532	38	6	
0	0	0	0	0	504	548	0	541	38	6	
1	0	0	0	0	509	555	0	533	38	6	
2	0	0	0	0	505	556	0	515	38	6	
3	0	0	0	0	512	558	0	511	38	6	
4	0	0	0	0	510	560	0	500	38	6	
5	0	0	0	0	502	561	0	501	38	6	
6	0	0	0	0	508	561	0	483	38	6	
7	0	0	0	0	508	563	0	479	38	6	
8	0	0	0	0	512	567	0	474	38	6	
9	0	0	0	0	507	569	0	471	38	6	
10	0	0	0	0	510	574	0	471	38	6	
11	0	0	0	0	499	579	0	496	38	6	
12	0	0	0	0	507	590	0	507	38	6	
13	0	0	0	0	509	605	0	517	38	6	
14	0	0	0	0	510	617	0	506	38	6	
15	0	0	0	0	499	626	0	522	38	6	
0	0	0	0	0	513	633	0	521	38	6	
1	0	0	0	0	505	639	0	510	38	6	
2	0	0	0	0	510	641	0	499	38	6	
3	0	0	0	0	504	641	0	489	38	6	
4	0	0	0	0	511	642	0	482	38	6	
5	0	0	0	0	512	644	0	477	38	6	
6	0	0	0	0	512	643	0	472	38	6	
7	0	0	0	0	512	644	0	470	38	6	
8	0	0	0	0	505	647	0	472	38	6	
9	0	0	0	0	505	651	0	493	38	6	
10	0	0	0	0	505	653	0	499	38	6	
11	0	0	0	0	510	655	0	495	38	6	
12	0	0	0	0	509	652	0	490	38	6	
13	0	0	0	0	502	636	0	482	38	6	
14	0	0	0	0	504	611	0	480	38	6	
15	0	0	0	0	507	580	0	473	38	6	
0	0	0	0	0	511	548	0	472	38	6	
1	0	0	0	0	502	519	0	467	38	6	
2	0	0	0	0	512	494	0	473	38	6	
3	0	0	0	0	509	472	0	495	38	6	
4	0	0	0	0	511	450	0	504	38	6	
5	0	0	0	0	511	429	0	499	38	6	
6	0	0	0	0	511	409	0	507	38	6	
7	0	0	0	0	505	392	0	522	38	6	
8	0	0	0	0	511	379	0	521	38	6	
9	0	0	0	0	506	371	0	511	38	6	
10	0	0	0	0	503	370	0	499	38	6	
11	0	0	0	0	505	374	0	489	38	6	
12	0	0	0	0	504	379	0	482	38	6	
13	0	0	0	0	507	384	0	478	38	6	
14	0	0	0	0	507	391	0	474	38	6	
15	0	0	0	0	510	395	0	470	38	6	
0	0	0	0	0	508	403	0	481	38	6	
1	0	0	0	0	509	414	0	500	38	6	
2	0	0	0	0	510	424	0	504	38	6	
3	0	0	0	0	507	436	0	504	38	6	
4	0	0	0	0	505	448	0	495	38	6	
5	0	0	0	0	505	459	0	493	38	6	
6	0	0	0	0	505	467	0	487	38	6	
7	0	0	0	0	504	477	0	488	38	6	
8	0	0	0	0	512	489	0	498	38	6	
9	0	0	0	0	513	501	0	498	38	6	
10	0	0	0	0	506	512	0	505	38	6	
11	0	0	0	0	504	517	0	507	38	6	
12	0	0	0	0	506	516	0	507	38	6	
13	0	0	0	0	510	514	0	513	38	6	
14	0	0	0	0	508	514	0	522	38	6	
15	0	0	0	0	508	517	0	531	38	6	
0	0	0	0	0	510	519	0	540	38	6	
1	0	0	0	0	508	520	0	549	38	6	
2	0	0	0	0	504	523	0	558	38	6	
3	0	0	0	0	504	523	0	548	38	6	
4	0	0	0	0	508	523	0	544	38	6	
5	0	0	0	0	516	524	0	552	38	6	
6	0	0	0	0	510	528	0	542	38	6	
7	0	0	0	0	510	531	0	529	38	6	
8	0	0	0	0	509	532	0	524	38	6	
9	0	0	0	0	511	534	0	514	38	6	
10	0	0	0	0	502	535	0	512	38	6	
11	0	0	0	0	507	537	0	531	38	6	
12	0	0	0	0	510	538	0	536	38	6	
13	0	0	0	0	510	537	0	528	38	6	
14	0	0	0	0	511	536	0	517	38	6	
15	0	0	0	0	510	534	0	507	38	6	
0	0	0	0	0	508	531	0	497	38	6	
1	0	0	0	0	503	534	0	492	38	6	
2	0	0	0	0	502	536	0	504	38	6	
3	0	0	0	0	513	538	0	519	38	6	
4	0	0	0	0	503	540	0	518	38	6	
5	0	0	0	0	504	539	0	512	38	6	
6	0	0	0	0	508	542	0	504	38	6	
7	0	0	0	0	511	542	0	495	38	6	
8	0	0	0	0	507	541	0	501	38	6	
9	0	0	0	0	506	539	0	516	38	6	
10	0	0	0	0	510	538	0	516	38	6	
11	0	0	0	0	514	536	0	512	38	6	
12	0	0	0	0	509	534	0	504	38	6	
13	0	0	0	0	514	534	0	499	38	6	
14	0	0	0	0	508	536	0	494	38	6	
15	0	0	0	0	507	538	0	491	38	6	
0	0	0	0	0	491	540	0	487	38	6	
1	0	0	0	0	507	540	0	483	38	6	
2	0	0	0	0	512	541	0	493	38	6	
3	0	0	0	0	510	541	0	518	38	6	
4	0	0	0	0	511	539	0	523	38	6	
5	0	0	0	0	502	538	0	519	38	6	
6	0	0	0	0	504	537	0	508	38	6	
7	0	0	0	0	511	537	0	512	38	6	
8	0	0	0	0	504	536	0	524	38	6	
9	0	0	0	0	506	536	0	521	38	6	
10	0	0	0	0	510	535	0	523	38	7	
11	0	0	0	0	511	536	0	515	38	6	
12	0	0	0	0	502	537	0	505	38	6	
13	0	0	0	0	509	535	0	497	38	6	
14	0	0	0	0	513	533	0	490	38	6	
15	0	0	0	0	505	533	0	486	38	6	
0	0	0	0	0	503	532	0	481	38	6	
1	0	0	0	0	504	533	0	479	38	7	
2	0	0	0	0	509	533	0	477	38	6	
3	0	0	0	0	510	534	0	479	38	6	
4	0	0	0	0	509	536	0	476	38	6	
5	0	0	0	0	516	536	0	474	38	6	
6	0	0	0	0	508	539	0	475	38	6	
7	0	0	0	0	504	541	0	483	38	6	
8	0	0	0	0	503	542	0	507	38	6	
9	0	0	0	0	505	541	0	524	38	6	
10	0	0	0	0	513	538	0	510	38	6	
11	0	0	0	0	512	536	0	506	38	7	
12	0	0	0	0	507	533	0	495	38	6	
13	0	0	0	0	508	532	0	490	38	6	
14	0	0	0	0	508	532	0	484	38	6	
15	0	0	0	0	506	534	0	477	38	6	
0	0	0	0	0	502	535	0	471	38	6	
1	0	0	0	0	511	536	0	474	38	6	
2	0	0	0	0	511	538	0	498	38	6	
3	0	0	0	0	507	540	0	511	38	6	
4	0	0	0	0	504	538	0	527	38	6	
5	0	0	0	0	503	537	0	542	38	6	
6	0	0	0	0	513	535	0	546	38	6	
7	0	0	0	0	505	534	0	558	38	6	
8	0	0	0	0	506	533	0	551	38	6	
9	0	0	0	0	504	532	0	551	38	6	
10	0	0	0	0	509	532	0	557	38	7	
11	0	0	0	0	511	534	0	552	38	6	
12	0	0	0	0	505	536	0	546	38	6	
13	0	0	0	0	511	539	0	541	38	6	
14	0	0	0	0	512	537	0	527	38	6	
15	0	0	0	0	506	535	0	523	38	6	
0	0	0	0	0	502	536	0	536	38	6	
1	0	0	0	0	511	537	0	530	38	6	
2	0	0	0	0	512	537	0	519	38	7	
3	0	0	0	0	505	537	0	507	38	6	
4	0	0	0	0	502	541	0	499	38	7	
5	0	0	0	0	508	539	0	491	38	6	
6	0	0	0	0	503	538	0	487	38	6	
7	0	0	0	0	509	538	0	482	38	6	
8	0	0	0	0	513	536	0	478	38	6	
9	0	0	0	0	508	535	0	487	38	6	
10	0	0	0	0	508	535	0	512	38	6	
11	0	0	0	0	508	539	0	518	38	6	
12	0	0	0	0	508	541	0	512	38	7	
13	0	0	0	0	508	541	0	502	38	6	
14	0	0	0	0	502	541	0	495	38	6	
15	0	0	0	0	502	539	0	493	38	6	
0	0	0	0	0	502	540	0	508	38	6	
1	0	0	0	0	509	539	0	508	38	6	
2	0	0	0	0	511	538	0	502	38	6	
3	0	0	0	0	502	539	0	504	38	7	
4	0	0	0	0	508	539	0	500	38	6	
5	0	0	0	0	512	537	0	494	38	6	
6	0	0	0	0	512	539	0	488	38	6	
7	0	0	0	0	510	541	0	479	38	6	
8	0	0	0	0	508	543	0	477	38	6	
9	0	0	0	0	512	543	0	473	38	6	
10	0	0	0	0	506	544	0	476	38	6	
11	0	0	0	0	505	543	0	498	38	6	
12	0	0	0	0	514	543	0	510	38	6	
13	0	0	0	0	509	545	0	506	38	6	
14	0	0	0	0	505	547	0	507	38	6	
15	0	0	0	0	504	547	0	524	38	6	
0	0	0	0	0	519	545	0	523	38	6	
1	0	0	0	0	509	540	0	511	38	6	
2	0	0	0	0	503	540	0	499	38	6	
3	0	0	0	0	504	541	0	489	38	6	
4	0	0	0	0	508	543	0	481	38	6	
5	0	0	0	0	505	546	0	476	38	6	
6	0	0	0	0	506	548	0	471	38	6	
7	0	0	0	0	506	550	0	469	38	6	
8	0	0	0	0	511	550	0	473	38	6	
9	0	0	0	0	503	550	0	496	38	6	
10	0	0	0	0	505	549	0	502	38	6	
11	0	0	0	0	505	547	0	499	38	6	
12	0	0	0	0	507	549	0	495	38	7	
13	0	0	0	0	509	550	0	492	38	6	
14	0	0	0	0	504	552	0	486	38	6	
15	0	0	0	0	505	553	0	485	38	6	
0	0	0	0	0	508	554	0	479	38	6	
1	0	0	0	0	503	556	0	480	38	6	
2	0	0	0	0	516	556	0	483	38	6	
3	0	0	0	0	510	555	0	512	38	6	
4	0	0	0	0	506	553	0	520	38	6	
5	0	0	0	0	501	552	0	539	38	6	
6	0	0	0	0	506	551	0	548	38	6	
7	0	0	0	0	520	551	0	546	38	6	
8	0	0	0	0	507	551	0	539	38	6	
9	0	0	0	0	503	551	0	526	38	6	
10	0	0	0	0	504	548	0	513	38	6	
11	0	0	0	0	508	547	0	504	38	6	
12	0	0	0	0	510	548	0	497	38	6	
13	0	0	0	0	500	550	0	493	38	6	
14	0	0	0	0	504	551	0	489	38	6	
15	0	0	0	0	519	550	0	485	38	6	
0	0	0	0	0	508	551	0	482	38	6	
1	0	0	0	0	509	552	0	481	38	6	
2	0	0	0	0	508	553	0	480	38	6	
3	0	0	0	0	500	552	0	479	38	6	
4	0	0	0	0	511	549	0	476	38	6	
5	0	0	0	0	503	548	0	491	38	6	
6	0	0	0	0	507	546	0	513	38	6	
7	0	0	0	0	504	547	0	518	38	6	
8	0	0	0	0	504	551	0	537	38	6	
9	0	0	0	0	509	555	0	541	38	6	
10	0	0	0	0	501	558	0	532	38	6	
11	0	0	0	0	506	559	0	520	38	6	
12	0	0	0	0	508	560	0	510	38	6	
13	0	0	0	0	510	561	0	500	38	6	
14	0	0	0	0	511	560	0	492	38	6	
15	0	0	0	0	507	560	0	489	38	6	
0	0	0	0	0	513	560	0	487	38	6	
1	0	0	0	0	505	559	0	487	38	6	
2	0	0	0	0	505	556	0	510	38	6	
3	0	0	0	0	511	552	0	518	38	6	
4	0	0	0	0	509	550	0	525	38	6	
5	0	0	0	0	508	549	0	515	38	6	
6	0	0	0	0	508	551	0	516	38	6	
7	0	0	0	0	504	552	0	510	38	6	
8	0	0	0	0	497	552	0	520	38	6	
9	0	0	0	0	509	557	0	534	38	6	
10	0	0	0	0	504	560	0	531	38	6	
11	0	0	0	0	506	561	0	521	38	6	
12	0	0	0	0	509	561	0	512	38	6	
13	0	0	0	0	510	560	0	500	38	6	
14	0	0	0	0	507	560	0	495	38	6	
15	0	0	0	0	508	563	0	492	38	6	
0	0	0	0	0	508	566	0	491	38	6	
1	0	0	0	0	505	568	0	487	38	6	
2	0	0	0	0	503	565	0	504	38	6	
3	0	0	0	0	511	559	0	523	38	6	
4	0	0	0	0	511	551	0	527	38	6	
5	0	0	0	0	510	544	0	525	38	6	
6	0	0	0	0	513	541	0	541	38	6	
7	0	0	0	0	510	542	0	546	38	6	
8	0	0	0	0	502	542	0	533	38	6	
9	0	0	0	0	500	543	0	525	38	6	
10	0	0	0	0	500	545	0	515	38	6	
11	0	0	0	0	505	545	0	511	38	6	
12	0	0	0	0	516	545	0	504	38	6	
13	0	0	0	0	503	547	0	504	38	6	
14	0	0	0	0	509	547	0	500	38	6	
15	0	0	0	0	507	546	0	504	38	6	
0	0	0	0	0	509	544	0	501	38	6	
1	0	0	0	0	509	542	0	502	38	6	
2	0	0	0	0	509	539	0	496	38	6	
3	0	0	0	0	506	536	0	497	38	6	
4	0	0	0	0	507	535	0	498	38	6	
5	0	0	0	0	507	531	0	522	38	6	
6	0	0	0	0	511	528	0	539	38	6	
7	0	0	0	0	507	529	0	549	38	6	
8	0	0	0	0	509	529	0	564	38	6	
9	0	0	0	0	509	530	0	559	38	6	
10	0	0	0	0	499	529	0	556	38	6	
11	0	0	0	0	508	527	0	543	38	6	
12	0	0	0	0	507	524	0	530	38	6	
13	0	0	0	0	514	522	0	519	38	6	
14	0	0	0	0	507	523	0	511	38	6	
15	0	0	0	0	504	522	0	505	38	7	
0	0	0	0	0	504	519	0	507	38	6	
1	0	0	0	0	512	518	0	498	38	6	
2	0	0	0	0	508	516	0	498	38	6	
3	0	0	0	0	507	514	0	496	38	6	
4	0	0	0	0	505	511	0	496	38	6	
5	0	0	0	0	507	511	0	493	38	6	
6	0	0	0	0	506	512	0	495	38	6	
7	0	0	0	0	509	509	0	503	38	6	
8	0	0	0	0	514	507	0	530	38	6	
9	0	0	0	0	507	504	0	536	38	6	
10	0	0	0	0	502	502	0	554	38	6	
11	0	0	0	0	507	501	0	566	38	6	
12	0	0	0	0	505	502	0	567	38	6	
13	0	0	0	0	506	504	0	580	38	6	
14	0	0	0	0	509	505	0	579	38	6	
15	0	0	0	0	510	504	0	580	38	6	
0	0	0	0	0	507	505	0	580	38	7	
1	0	0	0	0	499	505	0	561	38	6	
2	0	0	0	0	504	504	0	548	38	6	
3	0	0	0	0	505	501	0	540	38	6	
4	0	0	0	0	517	500	0	530	38	6	
5	0	0	0	0	504	502	0	518	38	6	
6	0	0	0	0	505	502	0	513	38	6	
7	0	0	0	0	511	499	0	506	38	6	
8	0	0	0	0	508	498	0	501	38	6	
9	0	0	0	0	509	495	0	497	38	6	
10	0	0	0	0	514	492	0	510	38	6	
11	0	0	0	0	506	490	0	535	38	6	
12	0	0	0	0	506	489	0	543	38	6	
13	0	0	0	0	512	488	0	539	38	6	
14	0	0	0	0	511	488	0	529	38	6	
15	0	0	0	0	504	487	0	520	38	6	
0	0	0	0	0	511	483	0	520	38	6	
1	0	0	0	0	506	481	0	537	38	6	
2	0	0	0	0	505	480	0	539	38	6	
3	0	0	0	0	503	480	0	531	38	6	
4	0	0	0	0	507	479	0	523	38	6	
5	0	0	0	0	507	476	0	514	38	6	
6	0	0	0	0	503	474	0	509	38	6	
7	0	0	0	0	507	474	0	505	38	6	
8	0	0	0	0	513	475	0	501	38	6	
9	0	0	0	0	512	477	0	499	38	7	
10	0	0	0	0	508	479	0	506	38	7	
11	0	0	0	0	505	481	0	534	38	6	
12	0	0	0	0	504	482	0	544	38	6	
13	0	0	0	0	511	482	0	561	38	6	
14	0	0	0	0	503	481	0	570	38	6	
15	0	0	0	0	505	483	0	558	38	6	
0	0	0	0	0	505	482	0	537	38	6	
1	0	0	0	0	504	478	0	531	38	6	
2	0	0	0	0	510	476	0	516	38	6	
3	0	0	0	0	510	476	0	512	38	7	
4	0	0	0	0	512	477	0	508	38	6	
5	0	0	0	0	508	478	0	504	38	6	
6	0	0	0	0	511	480	0	502	38	6	
7	0	0	0	0	511	481	0	498	38	6	
8	0	0	0	0	502	481	0	496	38	6	
9	0	0	0	0	502	479	0	495	38	6	
10	0	0	0	0	513	475	0	496	38	6	
11	0	0	0	0	511	472	0	519	38	7	
12	0	0	0	0	507	473	0	533	38	6	
13	0	0	0	0	511	473	0	529	38	6	
14	0	0	0	0	510	472	0	522	38	6	
15	0	0	0	0	511	473	0	511	38	6	
0	0	0	0	0	505	473	0	505	38	6	
1	0	0	0	0	501	475	0	514	38	6	
2	0	0	0	0	511	476	0	532	38	7	
3	0	0	0	0	501	475	0	529	38	6	
4	0	0	0	0	513	474	0	521	38	6	
5	0	0	0	0	506	474	0	511	38	6	
6	0	0	0	0	503	474	0	500	38	6	
7	0	0	0	0	499	471	0	505	38	6	
8	0	0	0	0	504	467	0	518	38	6	
9	0	0	0	0	512	467	0	514	38	6	
10	0	0	0	0	504	468	0	507	38	7	
11	0	0	0	0	510	471	0	497	38	6	
12	0	0	0	0	512	475	0	491	38	7	
13	0	0	0	0	502	476	0	489	38	6	
14	0	0	0	0	508	477	0	484	38	6	
15	0	0	0	0	506	480	0	486	38	6	
0	0	0	0	0	510	480	0	479	38	6	
1	0	0	0	0	509	480	0	500	38	6	
2	0	0	0	0	509	479	0	514	38	6	
3	0	0	0	0	503	477	0	526	38	6	
4	0	0	0	0	507	476	0	515	38	7	
5	0	0	0	0	505	476	0	504	38	6	
6	0	0	0	0	510	474	0	505	38	6	
7	0	0	0	0	508	471	0	502	38	6	
8	0	0	0	0	513	470	0	498	38	6	
9	0	0	0	0	511	469	0	515	38	6	
10	0	0	0	0	509	469	0	520	38	6	
11	0	0	0	0	503	470	0	515	38	7	
12	0	0	0	0	507	471	0	504	38	7	
13	0	0	0	0	507	471	0	494	38	6	
14	0	0	0	0	500	474	0	487	38	6	
15	0	0	0	0	509	477	0	480	38	6	
0	0	0	0	0	507	480	0	486	38	6	
1	0	0	0	0	510	483	0	501	38	6	
2	0	0	0	0	511	484	0	505	38	6	
3	0	0	0	0	507	483	0	523	38	7	
4	0	0	0	0	503	483	0	528	38	6	
5	0	0	0	0	512	484	0	519	38	7	
6	0	0	0	0	505	483	0	505	38	6	
7	0	0	0	0	503	482	0	492	38	6	
8	0	0	0	0	510	483	0	479	38	6	
9	0	0	0	0	509	483	0	465	38	6	
10	0	0	0	0	506	484	0	464	38	6	
11	0	0	0	0	504	485	0	461	38	6	
12	0	0	0	0	514	485	0	468	38	6	
13	0	0	0	0	509	483	0	465	38	7	
14	0	0	0	0	511	483	0	467	38	6	
15	0	0	0	0	507	483	0	466	38	6	
0	0	0	0	0	509	481	0	462	38	6	
1	0	0	0	0	505	481	0	462	38	6	
2	0	0	0	0	509	481	0	461	38	6	
3	0	0	0	0	507	482	0	463	38	6	
4	0	0	0	0	505	485	0	467	38	7	
5	0	0	0	0	504	487	0	469	38	7	
6	0	0	0	0	505	487	0	473	38	6	
7	0	0	0	0	508	487	0	476	38	6	
8	0	0	0	0	512	488	0	473	38	6	
9	0	0	0	0	508	488	0	473	38	6	
10	0	0	0	0	510	488	0	473	38	6	
11	0	0	0	0	501	488	0	477	38	6	
12	0	0	0	0	508	489	0	477	38	6	
13	0	0	0	0	508	491	0	478	38	6	
14	0	0	0	0	511	492	0	492	38	7	
15	0	0	0	0	508	493	0	516	38	6	
0	0	0	0	0	509	496	0	525	38	6	
1	0	0	0	0	512	499	0	540	38	6	
2	0	0	0	0	512	499	0	545	38	6	
3	0	0	0	0	511	496	0	546	38	6	
4	0	0	0	0	499	496	0	560	38	6	
5	0	0	0	0	508	496	0	556	38	6	
6	0	0	0	0	513	496	0	583	38	7	
7	0	0	0	0	512	496	0	565	38	6	
8	0	0	0	0	507	497	0	564	38	6	
9	0	0	0	0	505	499	0	563	38	6	
10	0	0	0	0	506	502	0	560	38	6	
11	0	0	0	0	496	503	0	556	38	6	
12	0	0	0	0	507	504	0	551	38	6	
13	0	0	0	0	506	507	0	534	38	7	
14	0	0	0	0	507	506	0	524	38	7	
15	0	0	0	0	508	507	0	533	38	6	
0	0	0	0	0	509	509	0	529	38	6	
1	0	0	0	0	503	511	0	535	38	6	
2	0	0	0	0	504	512	0	545	38	6	
3	0	0	0	0	504	511	0	537	38	6	
4	0	0	0	0	505	510	0	523	38	6	
5	0	0	0	0	513	510	0	511	38	6	
6	0	0	0	0	510	511	0	509	38	6	
7	0	0	0	0	509	512	0	503	38	7	
8	0	0	0	0	510	514	0	501	38	6	
9	0	0	0	0	508	514	0	519	38	6	
10	0	0	0	0	506	510	0	519	38	6	
11	0	0	0	0	512	506	0	510	38	6	
12	0	0	0	0	508	504	0	500	38	6	
13	0	0	0	0	504	503	0	491	38	6	
14	0	0	0	0	506	502	0	491	38	6	
15	0	0	0	0	509	504	0	508	38	7	
0	0	0	0	0	504	505	0	515	38	6	
1	0	0	0	0	507	505	0	523	38	6	
2	0	0	0	0	507	506	0	541	38	6	
3	0	0	0	0	508	507	0	543	38	6	
4	0	0	0	0	504	506	0	531	38	6	
5	0	0	0	0	506	504	0	523	38	6	
6	0	0	0	0	506	505	0	509	38	7	
7	0	0	0	0	504	505	0	513	38	6	
8	0	0	0	0	508	506	0	499	38	6	
9	0	0	0	0	512	505	0	518	38	6	
10	0	0	0	0	509	506	0	529	38	6	
11	0	0	0	0	506	509	0	526	38	6	
12	0	0	0	0	511	510	0	517	38	6	
13	0	0	0	0	508	510	0	508	38	6	
14	0	0	0	0	500	511	0	500	38	7	
15	0	0	0	0	505	512	0	495	38	6	
0	0	0	0	0	502	513	0	502	38	6	
1	0	0	0	0	511	512	0	519	38	6	
2	0	0	0	0	509	513	0	521	38	6	
3	0	0	0	0	508	514	0	519	38	6	
4	0	0	0	0	515	514	0	512	38	6	
5	0	0	0	0	508	515	0	514	38	6	
6	0	0	0	0	511	513	0	515	38	6	
7	0	0	0	0	496	513	0	512	38	6	
8	0	0	0	0	508	515	0	506	38	7	
9	0	0	0	0	515	516	0	502	38	6	
10	0	0	0	0	515	516	0	511	38	6	
11	0	0	0	0	510	515	0	534	38	6	
12	0	0	0	0	504	510	0	539	38	6	
13	0	0	0	0	509	507	0	533	38	6	
14	0	0	0	0	506	505	0	521	38	6	
15	0	0	0	0	507	504	0	513	38	7	
0	0	0	0	0	512	502	0	505	38	6	
1	0	0	0	0	506	500	0	502	38	6	
2	0	0	0	0	506	500	0	522	38	6	
3	0	0	0	0	507	500	0	532	38	6	
4	0	0	0	0	507	501	0	531	38	6	
5	0	0	0	0	505	502	0	521	38	6	
6	0	0	0	0	499	502	0	516	38	6	
7	0	0	0	0	508	502	0	508	38	6	
8	0	0	0	0	504	503	0	524	38	7	
9	0	0	0	0	514	504	0	531	38	7	
10	0	0	0	0	521	503	0	547	38	6	
11	0	0	0	0	507	500	0	521	38	6	
12	0	0	0	0	508	499	0	512	38	6	
13	0	0	0	0	500	496	0	503	38	6	
14	0	0	0	0	507	495	0	498	38	6	
15	0	0	0	0	509	495	0	493	38	6	
0	0	0	0	0	511	494	0	491	38	6	
1	0	0	0	0	507	494	0	487	38	6	
2	0	0	0	0	505	494	0	504	38	6	
3	0	0	0	0	503	496	0	523	38	6	
4	0	0	0	0	509	501	0	525	38	6	
5	0	0	0	0	507	504	0	522	38	6	
6	0	0	0	0	507	503	0	537	38	6	
7	0	0	0	0	509	503	0	541	38	6	
8	0	0	0	0	512	500	0	532	38	7	
9	0	0	0	0	506	497	0	521	38	7	
10	0	0	0	0	504	498	0	513	38	6	
11	0	0	0	0	508	499	0	505	38	6	
12	0	0	0	0	502	500	0	498	38	6	
13	0	0	0	0	504	502	0	495	38	6	
14	0	0	0	0	506	504	0	491	38	6	
15	0	0	0	0	508	504	0	488	38	6	
0	0	0	0	0	505	503	0	488	38	7	
1	0	0	0	0	507	500	0	485	38	6	
2	0	0	0	0	509	500	0	486	38	7	
3	0	0	0	0	512	497	0	484	38	6	
4	0	0	0	0	514	496	0	489	38	6	
5	0	0	0	0	506	494	0	513	38	6	
6	0	0	0	0	512	494	0	530	38	6	
7	0	0	0	0	506	495	0	542	38	6	
8	0	0	0	0	508	496	0	556	38	6	
9	0	0	0	0	510	497	0	548	38	6	
10	0	0	0	0	503	496	0	536	38	7	
11	0	0	0	0	509	495	0	523	38	6	
12	0	0	0	0	503	496	0	515	38	6	
13	0	0	0	0	503	496	0	510	38	6	
14	0	0	0	0	504	497	0	508	38	6	
15	0	0	0	0	507	497	0	504	38	6	
0	0	0	0	0	509	496	0	501	38	6	
1	0	0	0	0	505	496	0	511	38	7	
2	0	0	0	0	507	497	0	536	38	7	
3	0	0	0	0	506	498	0	544	38	6	
4	0	0	0	0	503	497	0	541	38	6	
5	0	0	0	0	508	494	0	541	38	6	
6	0	0	0	0	509	494	0	533	38	6	
7	0	0	0	0	505	493	0	531	38	6	
8	0	0	0	0	513	494	0	549	38	6	
9	0	0	0	0	513	493	0	549	38	7	
10	0	0	0	0	504	494	0	540	38	7	
11	0	0	0	0	510	495	0	529	38	7	
12	0	0	0	0	509	496	0	517	38	6	
13	0	0	0	0	506	494	0	509	38	6	
14	0	0	0	0	511	492	0	504	38	6	
15	0	0	0	0	503	492	0	498	38	6	
0	0	0	0	0	506	492	0	495	38	6	
1	0	0	0	0	506	494	0	499	38	7	
2	0	0	0	0	504	491	0	524	38	6	
3	0	0	0	0	510	491	0	531	38	7	
4	0	0	0	0	517	489	0	526	38	6	
5	0	0	0	0	509	491	0	517	38	6	
6	0	0	0	0	501	491	0	507	38	6	
7	0	0	0	0	505	492	0	503	38	6	
8	0	0	0	0	505	492	0	520	38	6	
9	0	0	0	0	513	492	0	531	38	6	
10	0	0	0	0	509	495	0	530	38	7	
11	0	0	0	0	508	497	0	523	38	7	
12	0	0	0	0	512	497	0	515	38	7	
13	0	0	0	0	507	496	0	509	38	6	
14	0	0	0	0	514	496	0	501	38	6	
15	0	0	0	0	504	495	0	501	38	6	
0	0	0	0	0	508	495	0	495	38	6	
1	0	0	0	0	504	494	0	495	38	6	
2	0	0	0	0	508	495	0	513	38	7	
3	0	0	0	0	509	496	0	529	38	7	
4	0	0	0	0	505	499	0	525	38	7	
5	0	0	0	0	513	500	0	523	38	6	
6	0	0	0	0	504	504	0	515	38	6	
7	0	0	0	0	503	508	0	522	38	6	
8	0	0	0	0	512	510	0	515	38	6	
9	0	0	0	0	508	510	0	529	38	6	
10	0	0	0	0	505	504	0	542	38	7	
11	0	0	0	0	511	499	0	546	38	6	
12	0	0	0	0	501	498	0	539	38	7	
13	0	0	0	0	504	498	0	528	38	6	
14	0	0	0	0	505	501	0	519	38	6	
15	0	0	0	0	508	503	0	512	38	6	
0	0	0	0	0	514	504	0	509	38	6	
1	0	0	0	0	505	505	0	527	38	6	
2	0	0	0	0	512	508	0	536	38	6	
3	0	0	0	0	507	511	0	533	38	7	
4	0	0	0	0	504	511	0	524	38	7	
5	0	0	0	0	503	510	0	517	38	7	
6	0	0	0	0	501	511	0	511	38	6	
7	0	0	0	0	508	511	0	504	38	6	
8	0	0	0	0	512	512	0	513	38	6	
9	0	0	0	0	504	511	0	525	38	6	
10	0	0	0	0	503	512	0	528	38	6	
11	0	0	0	0	512	511	0	520	38	7	
12	0	0	0	0	506	510	0	511	38	7	
13	0	0	0	0	503	511	0	502	38	7	
14	0	0	0	0	508	514	0	512	38	6	
15	0	0	0	0	507	515	0	492	38	6	
0	0	0	0	0	518	515	0	489	38	6	
1	0	0	0	0	515	516	0	484	38	6	
2	0	0	0	0	507	518	0	497	38	6	
3	0	0	0	0	509	520	0	521	38	7	
4	0	0	0	0	506	523	0	532	38	6	
5	0	0	0	0	502	526	0	550	38	7	
6	0	0	0	0	507	526	0	551	38	6	
7	0	0	0	0	504	525	0	547	38	6	
8	0	0	0	0	505	522	0	539	38	6	
9	0	0	0	0	511	520	0	527	38	6	
10	0	0	0	0	503	520	0	515	38	6	
11	0	0	0	0	509	520	0	505	38	6	
12	0	0	0	0	508	523	0	499	38	7	
13	0	0	0	0	503	524	0	495	38	7	
14	0	0	0	0	507	524	0	493	38	7	
15	0	0	0	0	511	522	0	492	38	6	
0	0	0	0	0	510	521	0	490	38	6	
1	0	0	0	0	507	520	0	490	38	6	
2	0	0	0	0	501	518	0	489	38	6	
3	0	0	0	0	505	517	0	491	38	6	
4	0	0	0	0	511	516	0	493	38	7	
5	0	0	0	0	512	515	0	513	38	7	
6	0	0	0	0	508	512	0	534	38	7	
7	0	0	0	0	511	511	0	543	38	6	
8	0	0	0	0	512	509	0	559	38	6	
9	0	0	0	0	509	509	0	556	38	6	
10	0	0	0	0	513	507	0	541	38	6	
11	0	0	0	0	503	507	0	528	38	6	
12	0	0	0	0	507	507	0	515	38	6	
13	0	0	0	0	504	508	0	512	38	6	
14	0	0	0	0	506	509	0	504	38	7	
15	0	0	0	0	508	508	0	502	38	6	
0	0	0	0	0	507	506	0	496	38	6	
1	0	0	0	0	507	501	0	509	38	6	
2	0	0	0	0	507	494	0	524	38	6	
3	0	0	0	0	511	493	0	534	38	6	
4	0	0	0	0	504	493	0	527	38	6	
5	0	0	0	0	504	494	0	528	38	7	
6	0	0	0	0	509	494	0	532	38	7	
7	0	0	0	0	508	494	0	534	38	7	
8	0	0	0	0	509	492	0	526	38	6	
9	0	0	0	0	509	490	0	534	38	6	
10	0	0	0	0	505	487	0	545	38	6	
11	0	0	0	0	508	487	0	542	38	6	
12	0	0	0	0	510	489	0	530	38	6	
13	0	0	0	0	504	491	0	517	38	7	
14	0	0	0	0	512	488	0	505	38	7	
15	0	0	0	0	502	486	0	499	38	7	
0	0	0	0	0	514	483	0	501	38	6	
1	0	0	0	0	506	480	0	519	38	6	
2	0	0	0	0	505	483	0	524	38	6	
3	0	0	0	0	514	483	0	519	38	6	
4	0	0	0	0	509	482	0	513	38	6	
5	0	0	0	0	504	481	0	507	38	7	
6	0	0	0	0	507	479	0	502	38	6	
7	0	0	0	0	509	478	0	498	38	7	
8	0	0	0	0	507	476	0	494	38	6	
9	0	0	0	0	508	474	0	492	38	6	
10	0	0	0	0	508	472	0	497	38	6	
11	0	0	0	0	505	473	0	524	38	6	
12	0	0	0	0	505	474	0	529	38	6	
13	0	0	0	0	507	473	0	521	38	6	
14	0	0	0	0	510	476	0	510	38	7	
15	0	0	0	0	511	476	0	504	38	7	
0	0	0	0	0	505	476	0	519	38	6	
1	0	0	0	0	519	478	0	522	38	6	
2	0	0	0	0	511	480	0	517	38	6	
3	0	0	0	0	505	479	0	507	38	6	
4	0	0	0	0	505	477	0	508	38	6	
5	0	0	0	0	508	477	0	508	38	6	
6	0	0	0	0	503	478	0	504	38	7	
7	0	0	0	0	502	477	0	493	38	7	
8	0	0	0	0	513	476	0	491	38	7	
9	0	0	0	0	512	473	0	493	38	6	
10	0	0	0	0	501	475	0	518	38	6	
11	0	0	0	0	508	478	0	521	38	6	
12	0	0	0	0	504	479	0	516	38	6	
13	0	0	0	0	510	480	0	505	38	6	
14	0	0	0	0	506	478	0	498	38	7	
15	0	0	0	0	503	476	0	490	38	6	
0	0	0	0	0	510	477	0	488	38	7	
1	0	0	0	0	504	478	0	501	38	6	
2	0	0	0	0	511	480	0	521	38	6	
3	0	0	0	0	510	482	0	521	38	6	
4	0	0	0	0	508	484	0	516	38	6	
5	0	0	0	0	508	486	0	505	38	6	
6	0	0	0	0	509	486	0	498	38	6	
7	0	0	0	0	509	488	0	502	38	7	
8	0	0	0	0	510	487	0	514	38	7	
9	0	0	0	0	504	488	0	511	38	6	
10	0	0	0	0	508	490	0	505	38	6	
11	0	0	0	0	518	491	0	497	38	6	
12	0	0	0	0	503	494	0	493	38	6	
13	0	0	0	0	506	495	0	489	38	6	
14	0	0	0	0	499	492	0	488	38	6	
15	0	0	0	0	508	493	0	486	38	7	
0	0	0	0	0	510	494	0	483	38	7	
1	0	0	0	0	504	495	0	498	38	7	
2	0	0	0	0	513	494	0	522	38	6	
3	0	0	0	0	509	496	0	529	38	6	
4	0	0	0	0	508	497	0	527	38	6	
5	0	0	0	0	504	497	0	530	38	6	
6	0	0	0	0	506	497	0	524	38	6	
7	0	0	0	0	508	495	0	523	38	7	
8	0	0	0	0	504	493	0	542	38	7	
9	0	0	0	0	510	494	0	542	38	7	
10	0	0	0	0	497	495	0	535	38	6	
11	0	0	0	0	515	495	0	523	38	6	
12	0	0	0	0	505	497	0	517	38	6	
13	0	0	0	0	503	498	0	508	38	6	
14	0	0	0	0	512	500	0	505	38	6	
15	0	0	0	0	516	499	0	497	38	6	
0	0	0	0	0	504	502	0	495	38	7	
1	0	0	0	0	507	504	0	496	38	7	
2	0	0	0	0	510	509	0	521	38	7	
3	0	0	0	0	508	513	0	528	38	6	
4	0	0	0	0	511	515	0	526	38	6	
5	0	0	0	0	502	519	0	516	38	6	
6	0	0	0	0	502	522	0	510	38	6	
7	0	0	0	0	505	529	0	506	38	6	
8	0	0	0	0	504	536	0	525	38	7	
9	0	0	0	0	509	543	0	528	38	7	
10	0	0	0	0	510	552	0	526	38	7	
11	0	0	0	0	510	557	0	516	38	6	
12	0	0	0	0	508	559	0	510	38	6	
13	0	0	0	0	506	559	0	501	38	6	
14	0	0	0	0	508	559	0	497	38	6	
15	0	0	0	0	507	559	0	493	38	6	
0	0	0	0	0	509	560	0	491	38	6	
1	0	0	0	0	506	563	0	489	38	7	
2	0	0	0	0	506	568	0	516	38	7	
3	0	0	0	0	514	577	0	524	38	6	
4	0	0	0	0	508	589	0	525	38	6	
5	0	0	0	0	503	600	0	516	38	6	
6	0	0	0	0	508	610	0	514	38	6	
7	0	0	0	0	508	619	0	515	38	6	
8	0	0	0	0	509	624	0	530	38	6	
9	0	0	0	0	511	629	0	543	38	7	
10	0	0	0	0	507	630	0	542	38	7	
11	0	0	0	0	505	631	0	527	38	7	
12	0	0	0	0	509	634	0	517	38	6	
13	0	0	0	0	508	636	0	503	38	6	
14	0	0	0	0	507	637	0	497	38	6	
15	0	0	0	0	504	638	0	490	38	6	
0	0	0	0	0	511	641	0	502	38	6	
1	0	0	0	0	510	644	0	486	38	7	
2	0	0	0	0	510	645	0	516	38	7	
3	0	0	0	0	508	645	0	519	38	7	
4	0	0	0	0	506	639	0	520	38	6	
5	0	0	0	0	506	625	0	513	38	6	
6	0	0	0	0	507	601	0	506	38	6	
7	0	0	0	0	511	571	0	497	38	6	
8	0	0	0	0	502	540	0	502	38	6	
9	0	0	0	0	508	508	0	515	38	7	
10	0	0	0	0	512	481	0	516	38	7	
11	0	0	0	0	513	458	0	510	38	7	
12	0	0	0	0	507	435	0	503	38	7	
13	0	0	0	0	508	415	0	497	38	6	
14	0	0	0	0	501	396	0	493	38	6	
15	0	0	0	0	507	378	0	491	38	6	
0	0	0	0	0	504	366	0	489	38	6	
1	0	0	0	0	509	359	0	484	38	6	
2	0	0	0	0	503	355	0	497	38	7	
3	0	0	0	0	502	355	0	523	38	7	
4	0	0	0	0	510	359	0	534	38	7	
5	0	0	0	0	513	364	0	553	38	6	
6	0	0	0	0	513	371	0	552	38	6	
7	0	0	0	0	504	380	0	549	38	6	
8	0	0	0	0	502	390	0	536	38	6	
9	0	0	0	0	513	401	0	526	38	6	
10	0	0	0	0	508	412	0	510	38	7	
11	0	0	0	0	504	423	0	510	38	7	
12	0	0	0	0	511	433	0	495	38	7	
13	0	0	0	0	508	441	0	491	38	6	
14	0	0	0	0	512	449	0	488	38	6	
15	0	0	0	0	513	457	0	487	38	6	
0	0	0	0	0	504	463	0	486	38	6	
1	0	0	0	0	504	468	0	501	38	6	
2	0	0	0	0	497	473	0	527	38	7	
3	0	0	0	0	506	478	0	535	38	7	
4	0	0	0	0	508	485	0	527	38	7	
5	0	0	0	0	508	492	0	517	38	7	
6	0	0	0	0	510	497	0	509	38	6	
7	0	0	0	0	511	500	0	508	38	6	
8	0	0	0	0	508	503	0	525	38	6	
9	0	0	0	0	507	505	0	527	38	6	
10	0	0	0	0	501	507	0	519	38	7	
11	0	0	0	0	509	509	0	512	38	7	
12	0	0	0	0	507	509	0	505	38	7	
13	0	0	0	0	504	510	0	500	38	7	
14	0	0	0	0	508	511	0	498	38	7	
15	0	0	0	0	512	511	0	492	38	6	
0	0	0	0	0	515	513	0	490	38	6	
1	0	0	0	0	508	515	0	493	38	6	
2	0	0	0	0	510	518	0	519	38	6	
3	0	0	0	0	503	519	0	526	38	7	
4	0	0	0	0	514	520	0	521	38	7	
5	0	0	0	0	505	520	0	512	38	7	
6	0	0	0	0	510	519	0	511	38	6	
7	0	0	0	0	508	518	0	512	38	6	
8	0	0	0	0	508	518	0	507	38	6	
9	0	0	0	0	502	519	0	515	38	6	
10	0	0	0	0	515	521	0	531	38	7	
11	0	0	0	0	507	521	0	534	38	7	
12	0	0	0	0	502	521	0	550	38	7	
13	0	0	0	0	506	521	0	549	38	7	
14	0	0	0	0	506	523	0	555	38	7	
15	0	0	0	0	509	526	0	551	38	6	
0	0	0	0	0	513	528	0	534	38	6	
1	0	0	0	0	511	530	0	515	38	6	
2	0	0	0	0	513	530	0	501	38	6	
3	0	0	0	0	503	528	0	488	38	7	
4	0	0	0	0	503	527	0	483	38	7	
5	0	0	0	0	501	526	0	479	38	7	
6	0	0	0	0	507	525	0	480	38	7	
7	0	0	0	0	503	525	0	476	38	7	
8	0	0	0	0	510	524	0	478	38	6	
9	0	0	0	0	511	524	0	476	38	6	
10	0	0	0	0	505	526	0	473	38	6	
11	0	0	0	0	515	528	0	473	38	6	
12	0	0	0	0	504	529	0	471	38	7	
13	0	0	0	0	504	528	0	489	38	7	
14	0	0	0	0	508	530	0	511	38	7	
15	0	0	0	0	508	531	0	518	38	7	
0	0	0	0	0	512	532	0	536	38	6	
1	0	0	0	0	508	532	0	531	38	6	
2	0	0	0	0	511	529	0	518	38	6	
3	0	0	0	0	509	527	0	515	38	7	
4	0	0	0	0	504	526	0	508	38	7	
5	0	0	0	0	503	529	0	501	38	7	
6	0	0	0	0	503	527	0	490	38	7	
7	0	0	0	0	512	522	0	484	38	7	
8	0	0	0	0	510	518	0	478	38	7	
9	0	0	0	0	502	519	0	476	38	6	
10	0	0	0	0	511	519	0	476	38	6	
11	0	0	0	0	502	520	0	500	38	6	
12	0	0	0	0	508	524	0	510	38	7	
13	0	0	0	0	500	525	0	509	38	7	
14	0	0	0	0	507	526	0	506	38	7	
15	0	0	0	0	502	527	0	527	38	7	
0	0	0	0	0	508	527	0	523	38	6	
1	0	0	0	0	513	527	0	513	38	6	
2	0	0	0	0	509	527	0	500	38	6	
3	0	0	0	0	504	527	0	494	38	6	
4	0	0	0	0	505	527	0	486	38	6	
5	0	0	0	0	509	526	0	485	38	7	
6	0	0	0	0	509	526	0	478	38	7	
7	0	0	0	0	512	527	0	478	38	7	
8	0	0	0	0	514	528	0	481	38	7	
9	0	0	0	0	502	530	0	505	38	6	
10	0	0	0	0	511	528	0	510	38	6	
11	0	0	0	0	508	527	0	509	38	6	
12	0	0	0	0	509	526	0	499	38	7	
13	0	0	0	0	509	525	0	497	38	7	
14	0	0	0	0	506	525	0	489	38	7	
15	0	0	0	0	499	527	0	488	38	7	
0	0	0	0	0	507	527	0	483	38	7	
1	0	0	0	0	499	530	0	480	38	6	
2	0	0	0	0	509	531	0	486	38	6	
3	0	0	0	0	503	530	0	510	38	6	
4	0	0	0	0	507	529	0	518	38	6	
5	0	0	0	0	509	529	0	533	38	7	
6	0	0	0	0	505	529	0	544	38	7	
7	0	0	0	0	511	528	0	542	38	7	
8	0	0	0	0	509	524	0	536	38	7	
9	0	0	0	0	509	524	0	525	38	7	
10	0	0	0	0	508	523	0	511	38	6	
11	0	0	0	0	512	528	0	502	38	6	
12	0	0	0	0	509	533	0	494	38	6	
13	0	0	0	0	504	536	0	489	38	6	
14	0	0	0	0	506	537	0	486	38	7	
15	0	0	0	0	507	535	0	482	38	7	
0	0	0	0	0	496	535	0	482	38	7	
1	0	0	0	0	515	533	0	479	38	6	
2	0	0	0	0	513	534	0	483	38	6	
3	0	0	0	0	509	535	0	506	38	6	
4	0	0	0	0	509	532	0	519	38	6	
5	0	0	0	0	509	534	0	518	38	6	
6	0	0	0	0	507	535	0	517	38	7	
7	0	0	0	0	506	536	0	533	38	7	
8	0	0	0	0	512	535	0	532	38	7	
9	0	0	0	0	507	531	0	521	38	7	
10	0	0	0	0	509	530	0	509	38	6	
11	0	0	0	0	506	528	0	501	38	6	
12	0	0	0	0	507	525	0	494	38	6	
13	0	0	0	0	506	523	0	491	38	6	
14	0	0	0	0	509	521	0	484	38	6	
15	0	0	0	0	508	523	0	482	38	7	
0	0	0	0	0	510	525	0	487	38	7	
1	0	0	0	0	502	525	0	509	38	7	
2	0	0	0	0	510	524	0	516	38	6	
3	0	0	0	0	514	521	0	512	38	6	
4	0	0	0	0	510	523	0	506	38	6	
5	0	0	0	0	501	527	0	508	38	6	
6	0	0	0	0	504	528	0	509	38	6	
7	0	0	0	0	500	528	0	507	38	7	
8	0	0	0	0	511	526	0	518	38	7	
9	0	0	0	0	508	529	0	532	38	7	
10	0	0	0	0	511	534	0	531	38	6	
11	0	0	0	0	508	536	0	523	38	6	
12	0	0	0	0	508	536	0	516	38	6	
13	0	0	0	0	513	535	0	505	38	6	
14	0	0	0	0	502	534	0	502	38	6	
15	0	0	0	0	507	534	0	497	38	7	
0	0	0	0	0	515	531	0	503	38	7	
1	0	0	0	0	511	531	0	494	38	7	
2	0	0	0	0	512	531	0	514	38	7	
3	0	0	0	0	505	531	0	532	38	6	
4	0	0	0	0	508	531	0	537	38	6	
5	0	0	0	0	503	532	0	532	38	6	
6	0	0	0	0	509	532	0	551	38	6	
7	0	0	0	0	508	533	0	546	38	6	
8	0	0	0	0	508	535	0	564	38	7	
9	0	0	0	0	511	534	0	556	38	7	
10	0	0	0	0	510	533	0	550	38	7	
11	0	0	0	0	508	533	0	537	38	6	
12	0	0	0	0	506	534	0	524	38	6	
13	0	0	0	0	515	537	0	513	38	6	
14	0	0	0	0	504	537	0	508	38	6	
15	0	0	0	0	507	537	0	502	38	6	
0	0	0	0	0	515	538	0	497	38	7	
1	0	0	0	0	510	537	0	493	38	7	
2	0	0	0	0	508	537	0	505	38	7	
3	0	0	0	0	502	536	0	529	38	6	
4	0	0	0	0	499	533	0	542	38	6	
5	0	0	0	0	504	532	0	560	38	6	
6	0	0	0	0	511	534	0	561	38	6	
7	0	0	0	0	508	536	0	557	38	7	
8	0	0	0	0	505	536	0	550	38	7	
9	0	0	0	0	511	539	0	538	38	7	
10	0	0	0	0	507	540	0	527	38	7	
11	0	0	0	0	511	538	0	517	38	7	
12	0	0	0	0	509	536	0	511	38	6	
13	0	0	0	0	505	536	0	509	38	6	
14	0	0	0	0	505	535	0	505	38	6	
15	0	0	0	0	506	536	0	506	38	6	
0	0	0	0	0	515	537	0	499	38	6	
1	0	0	0	0	512	541	0	500	38	7	
2	0	0	0	0	505	543	0	496	38	7	
3	0	0	0	0	504	543	0	497	38	7	
4	0	0	0	0	507	545	0	496	38	6	
5	0	0	0	0	511	546	0	516	38	6	
6	0	0	0	0	503	547	0	535	38	6	
7	0	0	0	0	500	546	0	543	38	6	
8	0	0	0	0	504	546	0	560	38	6	
9	0	0	0	0	509	547	0	556	38	7	
10	0	0	0	0	507	548	0	542	38	7	
11	0	0	0	0	503	550	0	530	38	7	
12	0	0	0	0	505	549	0	519	38	6	
13	0	0	0	0	508	549	0	512	38	6	
14	0	0	0	0	511	549	0	506	38	6	
15	0	0	0	0	512	549	0	502	38	6	
0	0	0	0	0	511	553	0	500	38	7	
1	0	0	0	0	512	553	0	505	38	7	
2	0	0	0	0	507	550	0	527	38	7	
3	0	0	0	0	511	546	0	536	38	7	
4	0	0	0	0	509	542	0	532	38	7	
5	0	0	0	0	503	540	0	524	38	6	
6	0	0	0	0	505	540	0	522	38	6	
7	0	0	0	0	504	542	0	527	38	6	
8	0	0	0	0	515	543	0	545	38	6	
9	0	0	0	0	509	542	0	557	38	7	
10	0	0	0	0	510	539	0	550	38	7	
11	0	0	0	0	509	536	0	540	38	7	
12	0	0	0	0	511	535	0	528	38	7	
13	0	0	0	0	512	534	0	516	38	6	
14	0	0	0	0	503	534	0	509	38	6	
15	0	0	0	0	503	535	0	503	38	6	
0	0	0	0	0	502	534	0	501	38	6	
1	0	0	0	0	505	532	0	499	38	7	
2	0	0	0	0	504	532	0	523	38	7	
3	0	0	0	0	508	533	0	532	38	7	
4	0	0	0	0	509	535	0	534	38	7	
5	0	0	0	0	507	533	0	526	38	6	
6	0	0	0	0	511	531	0	521	38	6	
7	0	0	0	0	508	527	0	512	38	6	
8	0	0	0	0	509	522	0	504	38	6	
9	0	0	0	0	508	518	0	497	38	6	
10	0	0	0	0	511	515	0	504	38	7	
11	0	0	0	0	508	517	0	528	38	7	
12	0	0	0	0	515	521	0	543	38	7	
13	0	0	0	0	514	524	0	556	38	7	
14	0	0	0	0	500	524	0	567	38	6	
15	0	0	0	0	503	520	0	554	38	6	
0	0	0	0	0	502	513	0	552	38	6	
1	0	0	0	0	498	508	0	538	38	6	
2	0	0	0	0	510	504	0	528	38	6	
3	0	0	0	0	505	501	0	519	38	7	
4	0	0	0	0	510	498	0	513	38	7	
5	0	0	0	0	511	497	0	507	38	7	
6	0	0	0	0	509	498	0	504	38	6	
7	0	0	0	0	507	498	0	498	38	6	
8	0	0	0	0	510	499	0	499	38	6	
9	0	0	0	0	508	499	0	496	38	6	
10	0	0	0	0	504	498	0	495	38	6	
11	0	0	0	0	517	497	0	495	38	7	
12	0	0	0	0	511	496	0	491	38	7	
13	0	0	0	0	503	496	0	505	38	7	
14	0	0	0	0	508	494	0	527	38	6	
15	0	0	0	0	501	489	0	536	38	6	
0	0	0	0	0	504	486	0	551	38	6	
1	0	0	0	0	511	483	0	556	38	6	
2	0	0	0	0	508	483	0	543	38	6	
3	0	0	0	0	510	483	0	532	38	7	
4	0	0	0	0	513	483	0	519	38	7	
5	0	0	0	0	509	484	0	508	38	7	
6	0	0	0	0	510	483	0	499	38	7	
7	0	0	0	0	502	482	0	495	38	6	
8	0	0	0	0	507	481	0	490	38	6	
9	0	0	0	0	508	480	0	486	38	6	
10	0	0	0	0	511	479	0	506	38	6	
11	0	0	0	0	507	479	0	520	38	7	
12	0	0	0	0	513	480	0	518	38	7	
13	0	0	0	0	503	481	0	513	38	7	
14	0	0	0	0	500	483	0	505	38	7	
15	0	0	0	0	509	484	0	503	38	6	
0	0	0	0	0	508	481	0	512	38	6	
1	0	0	0	0	512	476	0	527	38	6	
2	0	0	0	0	510	472	0	524	38	6	
3	0	0	0	0	502	473	0	521	38	7	
4	0	0	0	0	503	476	0	520	38	7	
5	0	0	0	0	511	477	0	515	38	7	
6	0	0	0	0	508	477	0	504	38	7	
7	0	0	0	0	499	475	0	500	38	6	
8	0	0	0	0	509	473	0	491	38	6	
9	0	0	0	0	506	473	0	489	38	6	
10	0	0	0	0	508	475	0	482	38	6	
11	0	0	0	0	509	478	0	493	38	6	
12	0	0	0	0	512	480	0	513	38	7	
13	0	0	0	0	508	480	0	521	38	7	
14	0	0	0	0	512	481	0	515	38	7	
15	0	0	0	0	506	480	0	527	38	7	
0	0	0	0	0	499	479	0	532	38	6	
1	0	0	0	0	506	477	0	530	38	6	
2	0	0	0	0	505	475	0	541	38	6	
3	0	0	0	0	510	473	0	539	38	6	
4	0	0	0	0	511	469	0	522	38	6	
5	0	0	0	0	508	469	0	510	38	7	
6	0	0	0	0	503	470	0	495	38	7	
7	0	0	0	0	505	470	0	487	38	7	
8	0	0	0	0	509	472	0	475	38	6	
9	0	0	0	0	513	473	0	472	38	6	
10	0	0	0	0	506	473	0	469	38	6	
11	0	0	0	0	508	473	0	470	38	6	
12	0	0	0	0	507	474	0	471	38	6	
13	0	0	0	0	512	477	0	472	38	7	
14	0	0	0	0	510	479	0	472	38	7	
15	0	0	0	0	505	480	0	472	38	7	
0	0	0	0	0	511	480	0	466	38	6	
1	0	0	0	0	508	480	0	467	38	6	
2	0	0	0	0	503	475	0	464	38	6	
3	0	0	0	0	504	472	0	468	38	6	
4	0	0	0	0	511	476	0	470	38	6	
5	0	0	0	0	506	480	0	474	38	7	
6	0	0	0	0	509	482	0	476	38	7	
7	0	0	0	0	511	483	0	479	38	7	
8	0	0	0	0	506	479	0	473	38	6	
9	0	0	0	0	515	476	0	473	38	6	
10	0	0	0	0	506	472	0	472	38	6	
11	0	0	0	0	507	470	0	476	38	6	
12	0	0	0	0	508	469	0	476	38	6	
13	0	0	0	0	507	468	0	498	38	6	
14	0	0	0	0	510	468	0	520	38	7	
15	0	0	0	0	510	467	0	527	38	7	
0	0	0	0	0	508	467	0	547	38	7	
1	0	0	0	0	504	468	0	543	38	6	
2	0	0	0	0	508	469	0	551	38	6	
3	0	0	0	0	509	471	0	559	38	6	
4	0	0	0	0	514	472	0	559	38	6	
5	0	0	0	0	502	474	0	569	38	6	
6	0	0	0	0	502	473	0	563	38	7	
7	0	0	0	0	501	471	0	563	38	7	
8	0	0	0	0	502	468	0	566	38	7	
9	0	0	0	0	511	466	0	551	38	6	
10	0	0	0	0	510	467	0	532	38	6	
11	0	0	0	0	510	469	0	516	38	6	
12	0	0	0	0	509	469	0	502	38	6	
13	0	0	0	0	504	470	0	493	38	6	
14	0	0	0	0	510	469	0	486	38	7	
15	0	0	0	0	504	468	0	483	38	6	
0	0	0	0	0	504	465	0	483	38	7	
1	0	0	0	0	508	464	0	501	38	6	
2	0	0	0	0	511	465	0	525	38	6	
3	0	0	0	0	506	465	0	528	38	6	
4	0	0	0	0	502	465	0	522	38	6	
5	0	0	0	0	515	466	0	515	38	6	
6	0	0	0	0	511	465	0	517	38	6	
7	0	0	0	0	508	466	0	512	38	7	
8	0	0	0	0	504	468	0	514	38	7	
9	0	0	0	0	509	467	0	531	38	6	
10	0	0	0	0	513	468	0	535	38	6	
11	0	0	0	0	510	471	0	525	38	6	
12	0	0	0	0	505	473	0	517	38	6	
13	0	0	0	0	508	473	0	507	38	6	
14	0	0	0	0	496	476	0	502	38	6	
15	0	0	0	0	510	476	0	496	38	7	
0	0	0	0	0	513	473	0	491	38	6	
1	0	0	0	0	506	474	0	487	38	7	
2	0	0	0	0	512	476	0	492	38	6	
3	0	0	0	0	508	476	0	516	38	6	
4	0	0	0	0	510	478	0	524	38	6	
5	0	0	0	0	502	477	0	519	38	6	
6	0	0	0	0	507	476	0	526	38	6	
7	0	0	0	0	507	477	0	536	38	6	
8	0	0	0	0	504	477	0	531	38	6	
9	0	0	0	0	506	477	0	518	38	7	
10	0	0	0	0	510	476	0	508	38	6	
11	0	0	0	0	508	476	0	498	38	6	
12	0	0	0	0	509	478	0	495	38	6	
13	0	0	0	0	510	479	0	490	38	6	
14	0	0	0	0	504	481	0	500	38	6	
15	0	0	0	0	510	483	0	483	38	6	
0	0	0	0	0	505	484	0	495	38	7	
1	0	0	0	0	508	486	0	512	38	7	
2	0	0	0	0	510	487	0	517	38	6	
3	0	0	0	0	510	487	0	514	38	6	
4	0	0	0	0	507	485	0	518	38	6	
5	0	0	0	0	506	485	0	513	38	6	
6	0	0	0	0	503	484	0	507	38	6	
7	0	0	0	0	508	484	0	501	38	6	
8	0	0	0	0	508	485	0	499	38	7	
9	0	0	0	0	521	485	0	494	38	6	
10	0	0	0	0	509	486	0	492	38	6	
11	0	0	0	0	505	487	0	496	38	6	
12	0	0	0	0	501	488	0	521	38	6	
13	0	0	0	0	504	489	0	528	38	6	
14	0	0	0	0	506	491	0	524	38	6	
15	0	0	0	0	502	494	0	530	38	6	
0	0	0	0	0	510	497	0	544	38	6	
1	0	0	0	0	512	497	0	541	38	6	
2	0	0	0	0	507	497	0	530	38	7	
3	0	0	0	0	511	496	0	519	38	6	
4	0	0	0	0	509	496	0	509	38	6	
5	0	0	0	0	508	494	0	505	38	6	
6	0	0	0	0	504	494	0	498	38	6	
7	0	0	0	0	510	496	0	510	38	6	
8	0	0	0	0	510	496	0	493	38	6	
9	0	0	0	0	505	494	0	505	38	7	
10	0	0	0	0	504	493	0	530	38	6	
11	0	0	0	0	506	496	0	539	38	6	
12	0	0	0	0	504	500	0	533	38	6	
13	0	0	0	0	511	503	0	523	38	6	
14	0	0	0	0	512	506	0	513	38	6	
15	0	0	0	0	504	507	0	513	38	6	
0	0	0	0	0	505	508	0	529	38	6	
1	0	0	0	0	503	507	0	530	38	7	
2	0	0	0	0	512	507	0	522	38	7	
3	0	0	0	0	505	508	0	523	38	7	
4	0	0	0	0	506	507	0	520	38	6	
5	0	0	0	0	507	506	0	514	38	6	
6	0	0	0	0	507	505	0	509	38	6	
7	0	0	0	0	510	505	0	503	38	6	
8	0	0	0	0	505	507	0	498	38	6	
9	0	0	0	0	508	506	0	495	38	6	
10	0	0	0	0	508	505	0	494	38	6	
11	0	0	0	0	508	505	0	515	38	6	
12	0	0	0	0	515	507	0	527	38	6	
13	0	0	0	0	508	511	0	525	38	6	
14	0	0	0	0	502	512	0	526	38	6	
15	0	0	0	0	510	512	0	543	38	6	
0	0	0	0	0	510	512	0	545	38	6	
1	0	0	0	0	505	510	0	534	38	6	
2	0	0	0	0	512	512	0	522	38	7	
3	0	0	0	0	506	511	0	512	38	6	
4	0	0	0	0	504	508	0	506	38	6	
5	0	0	0	0	516	506	0	501	38	6	
6	0	0	0	0	506	506	0	496	38	6	
7	0	0	0	0	509	505	0	494	38	6	
8	0	0	0	0	503	505	0	498	38	6	
9	0	0	0	0	506	507	0	518	38	6	
10	0	0	0	0	518	510	0	524	38	6	
11	0	0	0	0	504	510	0	519	38	7	
12	0	0	0	0	503	510	0	511	38	6	
13	0	0	0	0	507	505	0	505	38	6	
14	0	0	0	0	505	501	0	499	38	6	
15	0	0	0	0	508	498	0	496	38	6	
0	0	0	0	0	505	495	0	492	38	6	
1	0	0	0	0	512	496	0	491	38	6	
2	0	0	0	0	509	499	0	496	38	6	
3	0	0	0	0	505	502	0	519	38	6	
4	0	0	0	0	504	504	0	527	38	6	
5	0	0	0	0	515	506	0	542	38	6	
6	0	0	0	0	512	509	0	550	38	6	
7	0	0	0	0	507	510	0	538	38	6	
8	0	0	0	0	500	508	0	519	38	6	
9	0	0	0	0	508	505	0	509	38	6	
10	0	0	0	0	505	503	0	511	38	6	
11	0	0	0	0	513	502	0	527	38	7	
12	0	0	0	0	509	502	0	530	38	6	
13	0	0	0	0	510	503	0	558	38	6	
14	0	0	0	0	507	503	0	551	38	6	
15	0	0	0	0	507	502	0	561	38	6	
0	0	0	0	0	502	504	0	562	38	6	
1	0	0	0	0	503	505	0	553	38	6	
2	0	0	0	0	508	506	0	536	38	6	
3	0	0	0	0	512	507	0	532	38	7	
4	0	0	0	0	512	508	0	508	38	6	
5	0	0	0	0	514	508	0	502	38	6	
6	0	0	0	0	502	505	0	496	38	6	
7	0	0	0	0	499	503	0	495	38	6	
8	0	0	0	0	507	502	0	493	38	6	
9	0	0	0	0	505	501	0	514	38	6	
10	0	0	0	0	503	502	0	534	38	6	
11	0	0	0	0	516	504	0	544	38	6	
12	0	0	0	0	506	505	0	530	38	6	
13	0	0	0	0	511	506	0	521	38	6	
14	0	0	0	0	512	506	0	512	38	6	
15	0	0	0	0	511	506	0	518	38	6	
0	0	0	0	0	510	506	0	530	38	6	
1	0	0	0	0	509	508	0	526	38	6	
2	0	0	0	0	508	509	0	518	38	6	
3	0	0	0	0	507	510	0	510	38	6	
4	0	0	0	0	506	510	0	515	38	7	
5	0	0	0	0	516	508	0	515	38	6	
6	0	0	0	0	507	507	0	510	38	6	
7	0	0	0	0	508	507	0	505	38	6	
8	0	0	0	0	508	506	0	499	38	6	
9	0	0	0	0	505	505	0	510	38	6	
10	0	0	0	0	500	506	0	533	38	6	
11	0	0	0	0	503	505	0	539	38	6	
12	0	0	0	0	504	505	0	532	38	6	
13	0	0	0	0	513	504	0	522	38	6	
14	0	0	0	0	511	505	0	513	38	6	
15	0	0	0	0	507	506	0	504	38	6	
0	0	0	0	0	512	507	0	498	38	6	
1	0	0	0	0	507	508	0	493	38	6	
2	0	0	0	0	504	508	0	487	38	6	
3	0	0	0	0	510	508	0	498	38	6	
4	0	0	0	0	511	508	0	518	38	6	
5	0	0	0	0	506	508	0	524	38	6	
6	0	0	0	0	514	507	0	542	38	6	
7	0	0	0	0	515	507	0	541	38	6	
8	0	0	0	0	507	507	0	530	38	6	
9	0	0	0	0	507	506	0	514	38	6	
10	0	0	0	0	503	502	0	518	38	6	
11	0	0	0	0	503	497	0	496	38	6	
12	0	0	0	0	504	493	0	489	38	6	
13	0	0	0	0	505	493	0	485	38	7	
14	0	0	0	0	512	495	0	481	38	6	
15	0	0	0	0	509	497	0	480	38	6	
0	0	0	0	0	507	499	0	477	38	6	
1	0	0	0	0	516	503	0	473	38	6	
2	0	0	0	0	509	508	0	473	38	6	
3	0	0	0	0	506	511	0	472	38	6	
4	0	0	0	0	506	510	0	476	38	6	
5	0	0	0	0	504	509	0	499	38	6	
6	0	0	0	0	512	510	0	516	38	6	
7	0	0	0	0	512	511	0	526	38	6	
8	0	0	0	0	500	510	0	539	38	6	
9	0	0	0	0	502	508	0	533	38	6	
10	0	0	0	0	513	506	0	529	38	6	
11	0	0	0	0	513	506	0	516	38	6	
12	0	0	0	0	505	507	0	504	38	6	
13	0	0	0	0	507	504	0	494	38	6	
14	0	0	0	0	506	503	0	485	38	6	
15	0	0	0	0	505	503	0	479	38	6	
0	0	0	0	0	510	504	0	475	38	6	
1	0	0	0	0	504	507	0	472	38	6	
2	0	0	0	0	511	507	0	470	38	6	
3	0	0	0	0	500	506	0	470	38	6	
4	0	0	0	0	503	506	0	468	38	6	
5	0	0	0	0	512	504	0	467	38	6	
6	0	0	0	0	511	504	0	469	38	6	
7	0	0	0	0	505	503	0	476	38	6	
8	0	0	0	0	511	502	0	502	38	6	
9	0	0	0	0	511	504	0	509	38	6	
10	0	0	0	0	509	505	0	524	38	6	
11	0	0	0	0	506	506	0	535	38	6	
12	0	0	0	0	508	505	0	537	38	6	
13	0	0	0	0	508	503	0	550	38	6	
14	0	0	0	0	513	503	0	546	38	6	
15	0	0	0	0	497	504	0	547	38	6	
0	0	0	0	0	504	505	0	545	38	6	
1	0	0	0	0	501	505	0	529	38	6	
2	0	0	0	0	506	507	0	512	38	6	
3	0	0	0	0	504	510	0	508	38	6	
4	0	0	0	0	513	511	0	493	38	6	
5	0	0	0	0	512	514	0	487	38	6	
6	0	0	0	0	508	513	0	475	38	6	
7	0	0	0	0	511	513	0	474	38	6	
8	0	0	0	0	506	512	0	466	38	6	
9	0	0	0	0	507	512	0	463	38	6	
10	0	0	0	0	511	513	0	472	38	6	
11	0	0	0	0	504	511	0	499	38	6	
12	0	0	0	0	502	509	0	503	38	6	
13	0	0	0	0	506	507	0	502	38	6	
14	0	0	0	0	509	506	0	490	38	6	
15	0	0	0	0	508	508	0	485	38	6	
0	0	0	0	0	511	510	0	483	38	6	
1	0	0	0	0	504	513	0	517	38	6	
2	0	0	0	0	507	514	0	503	38	6	
3	0	0	0	0	511	511	0	495	38	6	
4	0	0	0	0	511	513	0	488	38	6	
5	0	0	0	0	508	515	0	480	38	6	
6	0	0	0	0	513	515	0	478	38	6	
7	0	0	0	0	500	515	0	494	38	6	
8	0	0	0	0	508	517	0	498	38	6	
9	0	0	0	0	511	518	0	504	38	6	
10	0	0	0	0	503	517	0	520	38	6	
11	0	0	0	0	512	517	0	523	38	6	
12	0	0	0	0	504	518	0	534	38	6	
13	0	0	0	0	504	517	0	538	38	6	
14	0	0	0	0	507	515	0	537	38	6	
15	0	0	0	0	507	513	0	544	38	6	
0	0	0	0	0	505	513	0	532	38	6	
1	0	0	0	0	506	513	0	516	38	6	
2	0	0	0	0	510	512	0	510	38	6	
3	0	0	0	0	511	512	0	502	38	6	
4	0	0	0	0	508	512	0	491	38	6	
5	0	0	0	0	507	511	0	482	38	6	
6	0	0	0	0	509	511	0	475	38	6	
7	0	0	0	0	510	512	0	470	38	6	
8	0	0	0	0	510	513	0	465	38	6	
9	0	0	0	0	514	511	0	471	38	6	
10	0	0	0	0	497	511	0	495	38	6	
11	0	0	0	0	500	511	0	505	38	6	
12	0	0	0	0	510	510	0	501	38	6	
13	0	0	0	0	508	511	0	498	38	6	
14	0	0	0	0	511	512	0	492	38	6	
15	0	0	0	0	507	512	0	491	38	6	
0	0	0	0	0	511	513	0	504	38	6	
1	0	0	0	0	507	516	0	511	38	6	
2	0	0	0	0	505	519	0	508	38	6	
3	0	0	0	0	505	521	0	500	38	6	
4	0	0	0	0	504	523	0	493	38	6	
5	0	0	0	0	515	525	0	488	38	6	
6	0	0	0	0	505	526	0	481	38	6	
7	0	0	0	0	505	529	0	479	38	6	
8	0	0	0	0	506	531	0	473	38	6	
9	0	0	0	0	508	532	0	475	38	6	
10	0	0	0	0	505	533	0	495	38	6	
11	0	0	0	0	511	530	0	507	38	6	
12	0	0	0	0	504	529	0	507	38	6	
13	0	0	0	0	502	527	0	502	38	6	
14	0	0	0	0	509	526	0	497	38	6	
15	0	0	0	0	513	527	0	494	38	6	
0	0	0	0	0	507	529	0	504	38	6	
1	0	0	0	0	507	531	0	517	38	6	
2	0	0	0	0	513	530	0	517	38	6	
3	0	0	0	0	503	530	0	511	38	6	
4	0	0	0	0	512	530	0	504	38	6	
5	0	0	0	0	507	529	0	509	38	6	
6	0	0	0	0	504	530	0	516	38	6	
7	0	0	0	0	508	531	0	517	38	6	
8	0	0	0	0	505	535	0	515	38	6	
9	0	0	0	0	513	537	0	532	38	6	
10	0	0	0	0	512	538	0	540	38	6	
11	0	0	0	0	507	537	0	534	38	6	
12	0	0	0	0	506	533	0	524	38	6	
13	0	0	0	0	504	531	0	514	38	6	
14	0	0	0	0	510	530	0	504	38	6	
15	0	0	0	0	507	529	0	497	38	6	
0	0	0	0	0	510	529	0	493	38	6	
1	0	0	0	0	509	529	0	489	38	6	
2	0	0	0	0	513	527	0	489	38	6	
3	0	0	0	0	508	528	0	512	38	6	
4	0	0	0	0	499	530	0	524	38	6	
5	0	0	0	0	508	534	0	523	38	6	
6	0	0	0	0	513	534	0	524	38	6	
7	0	0	0	0	511	534	0	542	38	6	
8	0	0	0	0	507	536	0	543	38	6	
9	0	0	0	0	512	535	0	534	38	6	
10	0	0	0	0	504	534	0	523	38	6	
11	0	0	0	0	508	533	0	514	38	6	
12	0	0	0	0	510	531	0	507	38	6	
13	0	0	0	0	505	529	0	502	38	6	
14	0	0	0	0	510	527	0	497	38	6	
15	0	0	0	0	502	526	0	496	38	6	
0	0	0	0	0	504	526	0	499	38	6	
1	0	0	0	0	509	526	0	533	38	6	
2	0	0	0	0	508	525	0	529	38	6	
3	0	0	0	0	502	522	0	526	38	6	
4	0	0	0	0	513	521	0	520	38	6	
5	0	0	0	0	510	519	0	520	38	6	
6	0	0	0	0	508	517	0	521	38	6	
7	0	0	0	0	509	513	0	518	38	6	
8	0	0	0	0	507	510	0	529	38	6	
9	0	0	0	0	511	510	0	545	38	6	
10	0	0	0	0	505	512	0	543	38	6	
11	0	0	0	0	506	515	0	534	38	6	
12	0	0	0	0	502	514	0	524	38	6	
13	0	0	0	0	509	514	0	512	38	6	
14	0	0	0	0	510	515	0	504	38	6	
15	0	0	0	0	510	515	0	499	38	6	
0	0	0	0	0	508	513	0	496	38	6	
1	0	0	0	0	505	512	0	493	38	6	
2	0	0	0	0	505	510	0	508	38	6	
3	0	0	0	0	513	509	0	529	38	6	
4	0	0	0	0	512	508	0	531	38	6	
5	0	0	0	0	509	508	0	528	38	6	
6	0	0	0	0	505	510	0	540	38	6	
7	0	0	0	0	505	510	0	544	38	6	
8	0	0	0	0	508	507	0	546	38	6	
9	0	0	0	0	506	503	0	555	38	6	
10	0	0	0	0	508	502	0	548	38	6	
11	0	0	0	0	508	503	0	535	38	6	
12	0	0	0	0	507	499	0	519	38	6	
13	0	0	0	0	507	496	0	521	38	6	
14	0	0	0	0	509	491	0	535	38	6	
15	0	0	0	0	508	488	0	539	38	6	
0	0	0	0	0	503	487	0	551	38	6	
1	0	0	0	0	511	487	0	552	38	6	
2	0	0	0	0	511	488	0	541	38	6	
3	0	0	0	0	512	489	0	534	38	6	
4	0	0	0	0	502	489	0	529	38	6	
5	0	0	0	0	505	489	0	520	38	6	
6	0	0	0	0	510	488	0	510	38	6	
7	0	0	0	0	511	486	0	503	38	6	
8	0	0	0	0	504	483	0	498	38	6	
9	0	0	0	0	505	483	0	494	38	6	
10	0	0	0	0	503	482	0	494	38	6	
11	0	0	0	0	504	479	0	511	38	6	
12	0	0	0	0	511	478	0	529	38	6	
13	0	0	0	0	513	478	0	531	38	6	
14	0	0	0	0	510	481	0	527	38	6	
15	0	0	0	0	501	483	0	540	38	6	
0	0	0	0	0	512	483	0	545	38	6	
1	0	0	0	0	506	484	0	549	38	6	
2	0	0	0	0	503	485	0	563	38	6	
3	0	0	0	0	504	485	0	557	38	6	
4	0	0	0	0	511	487	0	544	38	6	
5	0	0	0	0	510	487	0	525	38	6	
6	0	0	0	0	505	488	0	515	38	6	
7	0	0	0	0	515	489	0	510	38	6	
8	0	0	0	0	507	491	0	528	38	6	
9	0	0	0	0	505	492	0	526	38	6	
10	0	0	0	0	505	492	0	523	38	6	
11	0	0	0	0	509	493	0	511	38	6	
12	0	0	0	0	498	492	0	521	38	6	
13	0	0	0	0	508	491	0	501	38	6	
14	0	0	0	0	508	491	0	498	38	6	
15	0	0	0	0	512	490	0	494	38	6	
0	0	0	0	0	513	489	0	495	38	6	
1	0	0	0	0	509	489	0	495	38	6	
2	0	0	0	0	505	491	0	524	38	6	
3	0	0	0	0	508	492	0	527	38	6	
4	0	0	0	0	515	492	0	523	38	6	
5	0	0	0	0	507	489	0	524	38	6	
6	0	0	0	0	507	487	0	522	38	6	
7	0	0	0	0	506	489	0	518	38	6	
8	0	0	0	0	511	492	0	533	38	6	
9	0	0	0	0	511	492	0	543	38	6	
10	0	0	0	0	510	493	0	537	38	6	
11	0	0	0	0	508	493	0	525	38	6	
12	0	0	0	0	505	494	0	516	38	6	
13	0	0	0	0	507	494	0	505	38	6	
14	0	0	0	0	510	493	0	500	38	6	
15	0	0	0	0	508	494	0	491	38	6	
0	0	0	0	0	503	494	0	488	38	6	
1	0	0	0	0	504	496	0	483	38	6	
2	0	0	0	0	502	494	0	505	38	6	
3	0	0	0	0	502	492	0	515	38	6	
4	0	0	0	0	508	491	0	528	38	6	
5	0	0	0	0	512	490	0	543	38	6	
6	0	0	0	0	513	491	0	543	38	6	
7	0	0	0	0	513	492	0	551	38	6	
8	0	0	0	0	514	492	0	550	38	6	
9	0	0	0	0	503	491	0	534	38	6	
10	0	0	0	0	507	489	0	516	38	6	
11	0	0	0	0	506	492	0	502	38	6	
12	0	0	0	0	507	495	0	491	38	6	
13	0	0	0	0	510	499	0	483	38	6	
14	0	0	0	0	509	504	0	477	38	6	
15	0	0	0	0	507	507	0	472	38	6	
0	0	0	0	0	508	510	0	474	38	6	
1	0	0	0	0	513	512	0	495	38	6	
2	0	0	0	0	509	516	0	508	38	6	
3	0	0	0	0	502	523	0	505	38	6	
4	0	0	0	0	502	528	0	507	38	6	
5	0	0	0	0	513	535	0	506	38	6	
6	0	0	0	0	512	541	0	500	38	6	
7	0	0	0	0	513	546	0	510	38	6	
8	0	0	0	0	509	549	0	521	38	6	
9	0	0	0	0	508	550	0	519	38	6	
10	0	0	0	0	506	555	0	509	38	6	
11	0	0	0	0	508	560	0	499	38	6	
12	0	0	0	0	505	564	0	489	38	6	
13	0	0	0	0	504	569	0	481	38	6	
14	0	0	0	0	507	574	0	478	38	6	
15	0	0	0	0	501	580	0	476	38	6	
0	0	0	0	0	507	588	0	475	38	6	
1	0	0	0	0	509	600	0	492	38	6	
2	0	0	0	0	511	613	0	516	38	6	
3	0	0	0	0	509	623	0	529	38	6	
4	0	0	0	0	511	632	0	513	38	6	
5	0	0	0	0	508	637	0	508	38	6	
6	0	0	0	0	509	642	0	516	38	6	
7	0	0	0	0	509	649	0	530	38	6	
8	0	0	0	0	508	655	0	531	38	6	
9	0	0	0	0	509	660	0	548	38	6	
10	0	0	0	0	508	659	0	549	38	6	
11	0	0	0	0	507	657	0	557	38	6	
12	0	0	0	0	506	657	0	560	38	6	
13	0	0	0	0	507	658	0	548	38	6	
14	0	0	0	0	507	663	0	537	38	6	
15	0	0	0	0	504	666	0	542	38	6	
0	0	0	0	0	508	661	0	541	38	6	
1	0	0	0	0	509	648	0	527	38	6	
2	0	0	0	0	509	624	0	513	38	6	
3	0	0	0	0	503	588	0	502	38	6	
4	0	0	0	0	505	551	0	497	38	6	
5	0	0	0	0	512	515	0	503	38	6	
6	0	0	0	0	510	483	0	503	38	6	
7	0	0	0	0	512	454	0	506	38	6	
8	0	0	0	0	508	428	0	530	38	6	
9	0	0	0	0	503	403	0	537	38	6	
10	0	0	0	0	512	382	0	532	38	6	
11	0	0	0	0	504	368	0	521	38	6	
12	0	0	0	0	505	356	0	512	38	6	
13	0	0	0	0	508	349	0	506	38	6	
14	0	0	0	0	506	345	0	505	38	6	
15	0	0	0	0	505	346	0	496	38	6	
0	0	0	0	0	508	350	0	493	38	6	
1	0	0	0	0	511	356	0	495	38	6	
2	0	0	0	0	505	365	0	521	38	6	
3	0	0	0	0	506	375	0	527	38	5	
4	0	0	0	0	514	384	0	522	38	5	
5	0	0	0	0	506	394	0	512	38	5	
6	0	0	0	0	506	404	0	505	38	5	
7	0	0	0	0	504	415	0	501	38	6	
8	0	0	0	0	503	426	0	516	38	6	
9	0	0	0	0	508	437	0	525	38	6	
10	0	0	0	0	514	448	0	521	38	6	
11	0	0	0	0	508	456	0	513	38	5	
12	0	0	0	0	514	463	0	504	38	5	
13	0	0	0	0	504	470	0	499	38	5	
14	0	0	0	0	509	476	0	492	38	5	
15	0	0	0	0	508	482	0	490	38	5	
0	0	0	0	0	503	485	0	486	38	5	
1	0	0	0	0	509	490	0	485	38	5	
2	0	0	0	0	505	497	0	504	38	5	
3	0	0	0	0	506	507	0	517	38	5	
4	0	0	0	0	512	513	0	513	38	5	
5	0	0	0	0	511	514	0	508	38	5	
6	0	0	0	0	510	515	0	503	38	5	
7	0	0	0	0	511	515	0	505	38	5	
8	0	0	0	0	508	511	0	499	38	5	
9	0	0	0	0	508	510	0	507	38	5	
10	0	0	0	0	501	509	0	525	38	5	
11	0	0	0	0	512	511	0	532	38	5	
12	0	0	0	0	516	512	0	517	38	5	
13	0	0	0	0	508	513	0	507	38	5	
14	0	0	0	0	504	515	0	495	38	5	
15	0	0	0	0	502	516	0	487	38	5	
0	0	0	0	0	500	519	0	484	38	5	
1	0	0	0	0	504	521	0	500	38	5	
2	0	0	0	0	508	520	0	509	38	5	
3	0	0	0	0	497	520	0	505	38	5	
4	0	0	0	0	508	519	0	498	38	5	
5	0	0	0	0	506	519	0	491	38	5	
6	0	0	0	0	510	520	0	486	38	5	
7	0	0	0	0	501	520	0	481	38	5	
8	0	0	0	0	517	519	0	490	38	5	
9	0	0	0	0	505	517	0	506	38	5	
10	0	0	0	0	508	516	0	509	38	5	
11	0	0	0	0	508	515	0	505	38	5	
12	0	0	0	0	502	515	0	498	38	5	
13	0	0	0	0	505	515	0	493	38	5	
14	0	0	0	0	509	514	0	490	38	5	
15	0	0	0	0	507	515	0	488	38	5	
0	0	0	0	0	511	517	0	487	38	5	
1	0	0	0	0	508	517	0	484	38	5	
2	0	0	0	0	508	519	0	497	38	5	
3	0	0	0	0	504	524	0	520	38	5	
4	0	0	0	0	503	526	0	525	38	5	
5	0	0	0	0	510	528	0	520	38	5	
6	0	0	0	0	515	529	0	532	38	5	
7	0	0	0	0	510	529	0	544	38	5	
8	0	0	0	0	506	528	0	539	38	5	
9	0	0	0	0	511	528	0	529	38	5	
10	0	0	0	0	508	530	0	516	38	5	
11	0	0	0	0	508	530	0	504	38	5	
12	0	0	0	0	505	531	0	497	38	5	
13	0	0	0	0	510	530	0	494	38	5	
14	0	0	0	0	501	527	0	491	38	5	
15	0	0	0	0	508	527	0	492	38	5	
0	0	0	0	0	505	527	0	489	38	5	
1	0	0	0	0	505	530	0	489	38	5	
2	0	0	0	0	503	531	0	486	38	5	
3	0	0	0	0	511	532	0	488	38	5	
4	0	0	0	0	514	532	0	488	38	5	
5	0	0	0	0	502	532	0	508	38	5	
6	0	0	0	0	509	531	0	526	38	5	
7	0	0	0	0	502	531	0	533	38	5	
8	0	0	0	0	514	531	0	548	38	5	
9	0	0	0	0	509	531	0	550	38	5	
10	0	0	0	0	507	531	0	556	38	5	
11	0	0	0	0	504	532	0	564	38	5	
12	0	0	0	0	511	530	0	553	38	5	
13	0	0	0	0	511	526	0	540	38	5	
14	0	0	0	0	508	524	0	546	38	5	
15	0	0	0	0	506	524	0	545	38	5	
0	0	0	0	0	507	529	0	531	38	5	
1	0	0	0	0	510	531	0	525	38	5	
2	0	0	0	0	513	531	0	522	38	5	
3	0	0	0	0	510	532	0	516	38	5	
4	0	0	0	0	505	532	0	504	38	5	
5	0	0	0	0	507	531	0	501	38	5	
6	0	0	0	0	509	530	0	495	38	5	
7	0	0	0	0	507	529	0	501	38	5	
8	0	0	0	0	507	529	0	507	38	5	
9	0	0	0	0	513	528	0	507	38	5	
10	0	0	0	0	509	529	0	504	38	5	
11	0	0	0	0	507	531	0	503	38	5	
12	0	0	0	0	500	532	0	501	38	5	
13	0	0	0	0	506	530	0	523	38	5	
14	0	0	0	0	513	531	0	534	38	5	
15	0	0	0	0	508	531	0	531	38	5	
0	0	0	0	0	510	529	0	516	38	5	
1	0	0	0	0	507	531	0	513	38	5	
2	0	0	0	0	504	533	0	497	38	5	
3	0	0	0	0	501	536	0	501	38	5	
4	0	0	0	0	504	536	0	499	38	5	
5	0	0	0	0	497	537	0	523	38	5	
6	0	0	0	0	512	539	0	523	38	5	
7	0	0	0	0	515	539	0	520	38	5	
8	0	0	0	0	511	539	0	528	38	5	
9	0	0	0	0	509	540	0	537	38	5	
10	0	0	0	0	510	539	0	532	38	5	
11	0	0	0	0	501	536	0	522	38	5	
12	0	0	0	0	511	535	0	514	38	5	
13	0	0	0	0	502	534	0	505	38	5	
14	0	0	0	0	503	532	0	499	38	5	
15	0	0	0	0	510	531	0	496	38	5	
0	0	0	0	0	513	531	0	492	38	5	
1	0	0	0	0	502	532	0	488	38	5	
2	0	0	0	0	508	535	0	503	38	5	
3	0	0	0	0	507	536	0	524	38	5	
4	0	0	0	0	513	536	0	526	38	5	
5	0	0	0	0	510	536	0	524	38	5	
6	0	0	0	0	509	534	0	537	38	5	
7	0	0	0	0	510	536	0	542	38	5	
8	0	0	0	0	513	539	0	532	38	5	
9	0	0	0	0	511	543	0	520	38	5	
10	0	0	0	0	504	543	0	509	38	5	
11	0	0	0	0	506	543	0	502	38	5	
12	0	0	0	0	507	544	0	493	38	5	
13	0	0	0	0	511	546	0	489	38	5	
14	0	0	0	0	504	545	0	484	38	5	
15	0	0	0	0	510	544	0	483	38	5	
0	0	0	0	0	505	543	0	478	38	5	
1	0	0	0	0	507	540	0	477	38	5	
2	0	0	0	0	509	539	0	476	38	5	
3	0	0	0	0	513	540	0	473	38	5	
4	0	0	0	0	515	540	0	477	38	5	
5	0	0	0	0	502	537	0	500	38	5	
6	0	0	0	0	507	535	0	517	38	5	
7	0	0	0	0	505	534	0	530	38	5	
8	0	0	0	0	507	532	0	541	38	5	
9	0	0	0	0	506	530	0	534	38	5	
10	0	0	0	0	509	528	0	520	38	5	
11	0	0	0	0	508	526	0	506	38	5	
12	0	0	0	0	510	527	0	498	38	5	
13	0	0	0	0	505	528	0	492	38	5	
14	0	0	0	0	506	531	0	489	38	5	
15	0	0	0	0	507	534	0	486	38	5	
0	0	0	0	0	514	536	0	481	38	5	
1	0	0	0	0	505	540	0	492	38	5	
2	0	0	0	0	502	543	0	513	38	5	
3	0	0	0	0	508	546	0	519	38	5	
4	0	0	0	0	505	548	0	515	38	5	
5	0	0	0	0	507	547	0	530	38	5	
6	0	0	0	0	509	547	0	512	38	5	
7	0	0	0	0	503	548	0	509	38	5	
8	0	0	0	0	509	549	0	528	38	5	
9	0	0	0	0	514	550	0	533	38	5	
10	0	0	0	0	503	549	0	523	38	5	
11	0	0	0	0	505	549	0	511	38	5	
12	0	0	0	0	511	548	0	499	38	5	
13	0	0	0	0	505	544	0	491	38	5	
14	0	0	0	0	513	543	0	485	38	5	
15	0	0	0	0	507	544	0	480	38	5	
0	0	0	0	0	510	548	0	478	38	5	
1	0	0	0	0	508	550	0	481	38	5	
2	0	0	0	0	504	550	0	505	38	5	
3	0	0	0	0	508	550	0	513	38	5	
4	0	0	0	0	508	548	0	506	38	5	
5	0	0	0	0	504	548	0	499	38	5	
6	0	0	0	0	503	549	0	488	38	5	
7	0	0	0	0	508	549	0	482	38	5	
8	0	0	0	0	510	549	0	472	38	5	
9	0	0	0	0	508	550	0	467	38	5	
10	0	0	0	0	511	552	0	464	38	5	
11	0	0	0	0	514	555	0	462	38	5	
12	0	0	0	0	511	557	0	464	38	5	
13	0	0	0	0	506	557	0	480	38	5	
14	0	0	0	0	504	556	0	463	38	5	
15	0	0	0	0	500	556	0	466	38	5	
0	0	0	0	0	512	556	0	460	38	5	
1	0	0	0	0	502	558	0	460	38	5	
2	0	0	0	0	508	558	0	457	38	5	
3	0	0	0	0	503	556	0	461	38	5	
4	0	0	0	0	508	559	0	463	38	5	
5	0	0	0	0	507	558	0	467	38	5	
6	0	0	0	0	510	558	0	468	38	5	
7	0	0	0	0	510	557	0	470	38	5	
8	0	0	0	0	507	557	0	466	38	5	
9	0	0	0	0	505	557	0	464	38	5	
10	0	0	0	0	508	557	0	472	38	5	
11	0	0	0	0	508	554	0	500	38	5	
12	0	0	0	0	505	552	0	514	38	5	
13	0	0	0	0	512	551	0	510	38	5	
14	0	0	0	0	503	549	0	504	38	5	
15	0	0	0	0	504	547	0	490	38	5	
0	0	0	0	0	510	550	0	483	38	5	
1	0	0	0	0	508	553	0	478	38	5	
2	0	0	0	0	505	555	0	472	38	5	
3	0	0	0	0	501	553	0	470	38	5	
4	0	0	0	0	512	552	0	476	38	5	
5	0	0	0	0	504	551	0	505	38	5	
6	0	0	0	0	508	551	0	509	38	5	
7	0	0	0	0	504	551	0	523	38	5	
8	0	0	0	0	512	551	0	535	38	5	
9	0	0	0	0	510	549	0	535	38	5	
10	0	0	0	0	506	546	0	545	38	5	
11	0	0	0	0	513	546	0	538	38	5	
12	0	0	0	0	512	547	0	520	38	5	
13	0	0	0	0	507	548	0	518	38	5	
14	0	0	0	0	509	549	0	530	38	5	
15	0	0	0	0	505	545	0	526	38	5	
0	0	0	0	0	508	541	0	537	38	5	
1	0	0	0	0	509	539	0	537	38	5	
2	0	0	0	0	508	538	0	538	38	5	
3	0	0	0	0	511	536	0	549	38	5	
4	0	0	0	0	504	532	0	543	38	5	
5	0	0	0	0	510	530	0	528	38	5	
6	0	0	0	0	511	527	0	529	38	5	
7	0	0	0	0	504	525	0	532	38	5	
8	0	0	0	0	504	524	0	523	38	5	
9	0	0	0	0	507	523	0	512	38	5	
10	0	0	0	0	508	524	0	523	38	5	
11	0	0	0	0	508	524	0	526	38	5	
12	0	0	0	0	507	524	0	519	38	5	
13	0	0	0	0	502	524	0	507	38	5	
14	0	0	0	0	506	523	0	499	38	5	
15	0	0	0	0	509	518	0	491	38	5	
0	0	0	0	0	504	515	0	501	38	5	
1	0	0	0	0	505	512	0	513	38	5	
2	0	0	0	0	508	509	0	511	38	5	
3	0	0	0	0	504	507	0	514	38	5	
4	0	0	0	0	516	507	0	496	38	5	
5	0	0	0	0	507	505	0	488	38	5	
6	0	0	0	0	510	505	0	483	38	5	
7	0	0	0	0	510	506	0	482	38	5	
8	0	0	0	0	504	505	0	483	38	5	
9	0	0	0	0	507	505	0	477	38	5	
10	0	0	0	0	509	505	0	505	38	5	
11	0	0	0	0	504	503	0	517	38	5	
12	0	0	0	0	512	500	0	521	38	5	
13	0	0	0	0	506	498	0	518	38	5	
14	0	0	0	0	500	495	0	532	38	5	
15	0	0	0	0	507	493	0	535	38	5	
0	0	0	0	0	505	491	0	525	38	5	
1	0	0	0	0	508	488	0	527	38	5	
2	0	0	0	0	511	485	0	518	38	5	
3	0	0	0	0	509	485	0	509	38	5	
4	0	0	0	0	513	486	0	499	38	5	
5	0	0	0	0	508	487	0	493	38	5	
6	0	0	0	0	509	485	0	491	38	5	
7	0	0	0	0	505	483	0	487	38	5	
8	0	0	0	0	509	484	0	488	38	5	
9	0	0	0	0	507	486	0	484	38	5	
10	0	0	0	0	508	488	0	485	38	5	
11	0	0	0	0	511	488	0	484	38	5	
12	0	0	0	0	506	488	0	484	38	5	
13	0	0	0	0	510	486	0	486	38	5	
14	0	0	0	0	512	483	0	505	38	5	
15	0	0	0	0	505	481	0	526	38	5	
0	0	0	0	0	508	480	0	534	38	5	
1	0	0	0	0	509	481	0	554	38	5	
2	0	0	0	0	507	483	0	556	38	5	
3	0	0	0	0	507	483	0	544	38	5	
4	0	0	0	0	507	484	0	528	38	5	
5	0	0	0	0	507	484	0	515	38	5	
6	0	0	0	0	505	483	0	505	38	5	
7	0	0	0	0	507	480	0	500	38	5	
8	0	0	0	0	506	478	0	512	38	5	
9	0	0	0	0	515	476	0	524	38	5	
10	0	0	0	0	507	475	0	523	38	5	
11	0	0	0	0	502	475	0	517	38	5	
12	0	0	0	0	511	476	0	512	38	5	
13	0	0	0	0	508	478	0	503	38	5	
14	0	0	0	0	509	480	0	510	38	4	
15	0	0	0	0	512	480	0	494	38	4	
0	0	0	0	0	498	478	0	492	38	4	
1	0	0	0	0	505	475	0	489	38	4	
2	0	0	0	0	507	475	0	505	38	4	
3	0	0	0	0	515	475	0	525	38	5	
4	0	0	0	0	506	474	0	529	38	4	
5	0	0	0	0	510	474	0	528	38	4	
6	0	0	0	0	507	476	0	541	38	4	
7	0	0	0	0	513	479	0	545	38	4	
8	0	0	0	0	512	481	0	535	38	4	
9	0	0	0	0	502	480	0	523	38	4	
10	0	0	0	0	507	479	0	511	38	4	
11	0	0	0	0	502	480	0	501	38	4	
12	0	0	0	0	508	481	0	495	38	4	
13	0	0	0	0	513	482	0	489	38	4	
14	0	0	0	0	507	481	0	487	38	4	
15	0	0	0	0	503	480	0	486	38	4	
0	0	0	0	0	511	479	0	484	38	4	
1	0	0	0	0	509	475	0	480	38	4	
2	0	0	0	0	496	474	0	482	38	4	
3	0	0	0	0	505	472	0	483	38	4	
4	0	0	0	0	512	473	0	487	38	4	
5	0	0	0	0	507	473	0	511	38	4	
6	0	0	0	0	509	474	0	529	38	4	
7	0	0	0	0	511	475	0	542	38	4	
8	0	0	0	0	510	477	0	555	38	4	
9	0	0	0	0	509	478	0	547	38	4	
10	0	0	0	0	512	480	0	536	38	4	
11	0	0	0	0	502	478	0	522	38	4	
12	0	0	0	0	506	474	0	514	38	4	
13	0	0	0	0	510	472	0	506	38	4	
14	0	0	0	0	506	472	0	503	38	4	
15	0	0	0	0	508	472	0	499	38	4	
0	0	0	0	0	505	472	0	496	38	4	
1	0	0	0	0	513	474	0	493	38	4	
2	0	0	0	0	515	476	0	491	38	4	
3	0	0	0	0	512	478	0	494	38	4	
4	0	0	0	0	507	479	0	495	38	4	
5	0	0	0	0	508	480	0	514	38	4	
6	0	0	0	0	513	481	0	533	38	4	
7	0	0	0	0	498	483	0	541	38	4	
8	0	0	0	0	504	482	0	558	38	4	
9	0	0	0	0	508	479	0	560	38	4	
10	0	0	0	0	502	478	0	559	38	4	
11	0	0	0	0	513	480	0	549	38	4	
12	0	0	0	0	506	484	0	538	38	4	
13	0	0	0	0	506	488	0	524	38	4	
14	0	0	0	0	507	489	0	515	38	4	
15	0	0	0	0	512	487	0	507	38	4	
0	0	0	0	0	504	484	0	504	38	4	
1	0	0	0	0	504	481	0	499	38	4	
2	0	0	0	0	515	479	0	497	38	4	
3	0	0	0	0	505	476	0	497	38	4	
4	0	0	0	0	506	475	0	494	38	4	
5	0	0	0	0	510	476	0	497	38	4	
6	0	0	0	0	510	477	0	495	38	4	
7	0	0	0	0	507	478	0	499	38	4	
8	0	0	0	0	509	479	0	520	38	4	
9	0	0	0	0	508	480	0	533	38	4	
10	0	0	0	0	507	480	0	545	38	4	
11	0	0	0	0	510	478	0	565	38	4	
12	0	0	0	0	507	476	0	566	38	4	
13	0	0	0	0	507	473	0	553	38	4	
14	0	0	0	0	506	472	0	557	38	4	
15	0	0	0	0	507	474	0	560	38	4	
0	0	0	0	0	504	475	0	547	38	4	
1	0	0	0	0	512	476	0	536	38	4	
2	0	0	0	0	506	476	0	535	38	4	
3	0	0	0	0	510	478	0	528	38	4	
4	0	0	0	0	502	481	0	519	38	4	
5	0	0	0	0	511	484	0	514	38	4	
6	0	0	0	0	511	488	0	509	38	4	
7	0	0	0	0	512	489	0	507	38	4	
8	0	0	0	0	508	488	0	503	38	4	
9	0	0	0	0	510	488	0	503	38	4	
10	0	0	0	0	510	486	0	504	38	3	
11	0	0	0	0	508	484	0	502	38	4	
12	0	0	0	0	509	484	0	510	38	4	
13	0	0	0	0	506	485	0	499	38	4	
14	0	0	0	0	509	487	0	513	38	4	
15	0	0	0	0	510	489	0	537	38	4	
0	0	0	0	0	502	490	0	542	38	4	
1	0	0	0	0	515	491	0	558	38	3	
2	0	0	0	0	515	492	0	567	38	3	
3	0	0	0	0	505	493	0	556	38	3	
4	0	0	0	0	508	494	0	550	38	3	
5	0	0	0	0	510	494	0	562	38	3	
6	0	0	0	0	500	495	0	563	38	4	
7	0	0	0	0	508	497	0	567	38	4	
8	0	0	0	0	508	499	0	570	38	4	
9	0	0	0	0	506	499	0	555	38	3	
10	0	0	0	0	502	500	0	539	38	3	
11	0	0	0	0	504	500	0	525	38	3	
12	0	0	0	0	505	499	0	514	38	3	
13	0	0	0	0	505	499	0	507	38	3	
14	0	0	0	0	505	497	0	502	38	3	
15	0	0	0	0	504	496	0	498	38	3	
0	0	0	0	0	505	496	0	496	38	3	
1	0	0	0	0	507	495	0	510	38	3	
2	0	0	0	0	509	496	0	532	38	3	
3	0	0	0	0	510	495	0	534	38	3	
4	0	0	0	0	509	493	0	526	38	3	
5	0	0	0	0	512	492	0	517	38	3	
6	0	0	0	0	507	492	0	519	38	3	
7	0	0	0	0	511	492	0	515	38	4	
8	0	0	0	0	513	493	0	514	38	3	
9	0	0	0	0	504	496	0	531	38	3	
10	0	0	0	0	507	497	0	533	38	3	
11	0	0	0	0	505	498	0	524	38	3	
12	0	0	0	0	504	500	0	531	38	3	
13	0	0	0	0	511	500	0	504	38	3	
14	0	0	0	0	518	501	0	500	38	3	
15	0	0	0	0	500	502	0	492	38	4	
0	0	0	0	0	509	502	0	488	38	3	
1	0	0	0	0	507	502	0	482	38	3	
2	0	0	0	0	511	502	0	486	38	3	
3	0	0	0	0	509	503	0	511	38	3	
4	0	0	0	0	510	502	0	520	38	3	
5	0	0	0	0	509	501	0	536	38	3	
6	0	0	0	0	503	500	0	547	38	3	
7	0	0	0	0	502	498	0	538	38	4	
8	0	0	0	0	503	496	0	524	38	4	
9	0	0	0	0	511	496	0	512	38	4	
10	0	0	0	0	513	499	0	499	38	3	
11	0	0	0	0	512	505	0	491	38	3	
12	0	0	0	0	500	508	0	486	38	3	
13	0	0	0	0	510	512	0	483	38	3	
14	0	0	0	0	500	516	0	480	38	4	
15	0	0	0	0	506	517	0	479	38	4	
0	0	0	0	0	496	516	0	474	38	4	
1	0	0	0	0	507	513	0	469	38	4	
2	0	0	0	0	508	513	0	470	38	4	
3	0	0	0	0	504	513	0	471	38	4	
4	0	0	0	0	511	514	0	489	38	3	
5	0	0	0	0	513	514	0	510	38	4	
6	0	0	0	0	511	514	0	519	38	4	
7	0	0	0	0	506	515	0	538	38	4	
8	0	0	0	0	504	515	0	539	38	4	
9	0	0	0	0	510	515	0	537	38	4	
10	0	0	0	0	506	515	0	524	38	4	
11	0	0	0	0	511	516	0	512	38	4	
12	0	0	0	0	510	517	0	500	38	4	
13	0	0	0	0	498	518	0	491	38	4	
14	0	0	0	0	513	517	0	482	38	4	
15	0	0	0	0	508	516	0	478	38	4	
0	0	0	0	0	508	516	0	476	38	4	
1	0	0	0	0	508	513	0	476	38	4	
2	0	0	0	0	508	511	0	476	38	4	
3	0	0	0	0	507	512	0	494	38	4	
4	0	0	0	0	507	513	0	513	38	4	
5	0	0	0	0	506	512	0	515	38	4	
6	0	0	0	0	508	513	0	512	38	4	
7	0	0	0	0	509	512	0	526	38	4	
8	0	0	0	0	511	511	0	526	38	4	
9	0	0	0	0	510	510	0	516	38	4	
10	0	0	0	0	505	510	0	506	38	4	
11	0	0	0	0	505	508	0	496	38	4	
12	0	0	0	0	513	508	0	491	38	4	
13	0	0	0	0	507	506	0	484	38	4	
14	0	0	0	0	506	508	0	485	38	4	
15	0	0	0	0	511	509	0	482	38	4	
0	0	0	0	0	510	510	0	486	38	4	
1	0	0	0	0	508	515	0	504	38	4	
2	0	0	0	0	509	521	0	524	38	4	
3	0	0	0	0	505	523	0	523	38	4	
4	0	0	0	0	505	523	0	519	38	4	
5	0	0	0	0	502	524	0	513	38	4	
6	0	0	0	0	505	527	0	516	38	4	
7	0	0	0	0	509	529	0	509	38	4	
8	0	0	0	0	505	528	0	516	38	4	
9	0	0	0	0	507	526	0	533	38	4	
10	0	0	0	0	501	523	0	533	38	4	
11	0	0	0	0	512	520	0	526	38	4	
12	0	0	0	0	508	517	0	513	38	4	
13	0	0	0	0	508	517	0	504	38	4	
14	0	0	0	0	506	515	0	498	38	4	
15	0	0	0	0	504	514	0	493	38	4	
0	0	0	0	0	511	514	0	491	38	4	
1	0	0	0	0	511	514	0	487	38	4	
2	0	0	0	0	505	514	0	500	38	4	
3	0	0	0	0	508	514	0	523	38	4	
4	0	0	0	0	512	514	0	531	38	4	
5	0	0	0	0	507	515	0	524	38	4	
6	0	0	0	0	508	515	0	513	38	4	
7	0	0	0	0	508	515	0	514	38	4	
8	0	0	0	0	508	516	0	531	38	4	
9	0	0	0	0	511	518	0	532	38	4	
10	0	0	0	0	505	518	0	549	38	4	
11	0	0	0	0	512	519	0	552	38	4	
12	0	0	0	0	506	519	0	543	38	4	
13	0	0	0	0	507	519	0	528	38	4	
14	0	0	0	0	504	519	0	519	38	4	
15	0	0	0	0	504	519	0	508	38	4	
0	0	0	0	0	508	519	0	519	38	4	
1	0	0	0	0	511	522	0	528	38	4	
2	0	0	0	0	501	524	0	527	38	4	
3	0	0	0	0	505	523	0	519	38	4	
4	0	0	0	0	511	522	0	515	38	4	
5	0	0	0	0	502	521	0	514	38	4	
6	0	0	0	0	503	523	0	512	38	4	
7	0	0	0	0	504	521	0	504	38	4	
8	0	0	0	0	503	521	0	502	38	4	
9	0	0	0	0	513	521	0	496	38	4	
10	0	0	0	0	511	524	0	513	38	4	
11	0	0	0	0	508	525	0	530	38	4	
12	0	0	0	0	510	526	0	534	38	4	
13	0	0	0	0	514	527	0	527	38	4	
14	0	0	0	0	505	528	0	520	38	4	
15	0	0	0	0	513	527	0	507	38	4	
0	0	0	0	0	504	528	0	504	38	4	
1	0	0	0	0	507	526	0	502	38	4	
2	0	0	0	0	506	525	0	526	38	4	
3	0	0	0	0	508	525	0	528	38	4	
4	0	0	0	0	502	526	0	523	38	4	
5	0	0	0	0	505	526	0	513	38	4	
6	0	0	0	0	503	524	0	505	38	4	
7	0	0	0	0	515	523	0	501	38	4	
8	0	0	0	0	514	522	0	518	38	4	
9	0	0	0	0	511	520	0	527	38	4	
10	0	0	0	0	506	518	0	525	38	4	
11	0	0	0	0	499	516	0	517	38	4	
12	0	0	0	0	504	516	0	510	38	4	
13	0	0	0	0	508	517	0	503	38	4	
14	0	0	0	0	510	517	0	498	38	4	
15	0	0	0	0	514	518	0	495	38	4	
0	0	0	0	0	506	518	0	492	38	4	
1	0	0	0	0	514	520	0	492	38	4	
2	0	0	0	0	514	518	0	514	38	4	
3	0	0	0	0	510	515	0	526	38	4	
4	0	0	0	0	505	512	0	526	38	4	
5	0	0	0	0	504	509	0	518	38	4	
6	0	0	0	0	507	510	0	515	38	4	
7	0	0	0	0	505	511	0	518	38	4	
8	0	0	0	0	512	513	0	513	38	4	
9	0	0	0	0	505	516	0	521	38	4	
10	0	0	0	0	506	519	0	540	38	4	
11	0	0	0	0	508	521	0	540	38	4	
12	0	0	0	0	512	523	0	533	38	4	
13	0	0	0	0	508	524	0	521	38	4	
14	0	0	0	0	506	523	0	512	38	4	
15	0	0	0	0	509	522	0	504	38	4	
0	0	0	0	0	504	521	0	503	38	4	
1	0	0	0	0	506	520	0	519	38	4	
2	0	0	0	0	512	519	0	534	38	4	
3	0	0	0	0	507	518	0	531	38	4	
4	0	0	0	0	505	515	0	523	38	4	
5	0	0	0	0	504	514	0	513	38	4	
6	0	0	0	0	506	514	0	504	38	4	
7	0	0	0	0	515	512	0	495	38	4	
8	0	0	0	0	504	511	0	501	38	4	
9	0	0	0	0	503	511	0	517	38	4	
10	0	0	0	0	511	512	0	520	38	4	
11	0	0	0	0	508	514	0	516	38	4	
12	0	0	0	0	504	514	0	510	38	4	
13	0	0	0	0	513	514	0	505	38	4	
14	0	0	0	0	507	513	0	503	38	4	
15	0	0	0	0	507	514	0	499	38	4	
0	0	0	0	0	503	516	0	498	38	4	
1	0	0	0	0	505	518	0	494	38	4	
2	0	0	0	0	505	519	0	505	38	4	
3	0	0	0	0	508	521	0	527	38	4	
4	0	0	0	0	509	523	0	533	38	4	
5	0	0	0	0	508	523	0	528	38	4	
6	0	0	0	0	505	524	0	537	38	4	
7	0	0	0	0	504	524	0	546	38	4	
8	0	0	0	0	510	523	0	544	38	4	
9	0	0	0	0	510	520	0	542	38	4	
10	0	0	0	0	510	519	0	533	38	4	
11	0	0	0	0	508	518	0	521	38	4	
12	0	0	0	0	509	518	0	514	38	4	
13	0	0	0	0	510	518	0	508	38	4	
14	0	0	0	0	504	518	0	504	38	4	
15	0	0	0	0	507	518	0	500	38	4	
0	0	0	0	0	504	517	0	496	38	4	
1	0	0	0	0	511	518	0	496	38	4	
2	0	0	0	0	509	518	0	495	38	4	
3	0	0	0	0	514	518	0	495	38	4	
4	0	0	0	0	509	518	0	496	38	4	
5	0	0	0	0	505	516	0	493	38	4	
6	0	0	0	0	505	518	0	506	38	4	
7	0	0	0	0	508	519	0	527	38	4	
8	0	0	0	0	505	519	0	531	38	4	
9	0	0	0	0	508	518	0	520	38	4	
10	0	0	0	0	506	516	0	510	38	4	
11	0	0	0	0	512	516	0	503	38	4	
12	0	0	0	0	511	517	0	498	38	4	
13	0	0	0	0	507	517	0	495	38	4	
14	0	0	0	0	511	517	0	493	38	4	
15	0	0	0	0	512	517	0	487	38	4	
0	0	0	0	0	508	519	0	497	38	4	
1	0	0	0	0	496	521	0	517	38	4	
2	0	0	0	0	500	523	0	526	38	4	
3	0	0	0	0	508	523	0	547	38	4	
4	0	0	0	0	513	520	0	558	38	4	
5	0	0	0	0	511	517	0	562	38	4	
6	0	0	0	0	510	517	0	571	38	4	
7	0	0	0	0	508	517	0	562	38	4	
8	0	0	0	0	500	517	0	566	38	4	
9	0	0	0	0	500	516	0	562	38	4	
10	0	0	0	0	508	516	0	557	38	4	
11	0	0	0	0	508	517	0	552	38	4	
12	0	0	0	0	513	519	0	545	38	4	
13	0	0	0	0	510	519	0	530	38	4	
14	0	0	0	0	513	519	0	516	38	4	
15	0	0	0	0	503	520	0	507	38	4	
0	0	0	0	0	511	519	0	501	38	4	
1	0	0	0	0	507	519	0	496	38	4	
2	0	0	0	0	507	519	0	495	38	4	
3	0	0	0	0	505	518	0	510	38	4	
4	0	0	0	0	513	519	0	528	38	4	
5	0	0	0	0	510	518	0	527	38	4	
6	0	0	0	0	501	515	0	523	38	4	
7	0	0	0	0	508	513	0	536	38	4	
8	0	0	0	0	512	511	0	543	38	4	
9	0	0	0	0	502	509	0	535	38	4	
10	0	0	0	0	503	507	0	522	38	4	
11	0	0	0	0	512	509	0	511	38	4	
12	0	0	0	0	502	512	0	501	38	4	
13	0	0	0	0	505	513	0	492	38	4	
14	0	0	0	0	512	514	0	487	38	4	
15	0	0	0	0	510	514	0	482	38	4	
0	0	0	0	0	504	515	0	482	38	4	
1	0	0	0	0	510	515	0	502	38	4	
2	0	0	0	0	507	514	0	514	38	4	
3	0	0	0	0	508	514	0	525	38	4	
4	0	0	0	0	508	516	0	541	38	4	
5	0	0	0	0	504	518	0	541	38	4	
6	0	0	0	0	505	519	0	548	38	4	
7	0	0	0	0	508	519	0	543	38	4	
8	0	0	0	0	505	519	0	538	38	4	
9	0	0	0	0	505	518	0	546	38	4	
10	0	0	0	0	506	515	0	535	38	4	
11	0	0	0	0	506	512	0	522	38	4	
12	0	0	0	0	507	511	0	505	38	4	
13	0	0	0	0	507	511	0	496	38	4	
14	0	0	0	0	510	512	0	486	38	4	
15	0	0	0	0	507	510	0	486	38	4	
0	0	0	0	0	510	507	0	477	38	4	
1	0	0	0	0	508	505	0	474	38	4	
2	0	0	0	0	507	506	0	483	38	4	
3	0	0	0	0	511	507	0	507	38	4	
4	0	0	0	0	508	508	0	516	38	4	
5	0	0	0	0	509	508	0	532	38	4	
6	0	0	0	0	508	510	0	532	38	4	
7	0	0	0	0	511	513	0	518	38	4	
8	0	0	0	0	508	513	0	504	38	4	
9	0	0	0	0	495	511	0	491	38	4	
10	0	0	0	0	505	509	0	481	38	4	
11	0	0	0	0	511	506	0	474	38	4	
12	0	0	0	0	509	506	0	470	38	4	
13	0	0	0	0	512	505	0	467	38	4	
14	0	0	0	0	511	508	0	467	38	4	
15	0	0	0	0	511	510	0	470	38	4	
0	0	0	0	0	505	510	0	484	38	4	
1	0	0	0	0	508	510	0	500	38	4	
2	0	0	0	0	506	509	0	504	38	4	
3	0	0	0	0	504	506	0	499	38	4	
4	0	0	0	0	506	505	0	498	38	4	
5	0	0	0	0	507	504	0	504	38	4	
6	0	0	0	0	509	504	0	503	38	4	
7	0	0	0	0	502	503	0	495	38	4	
8	0	0	0	0	508	504	0	491	38	4	
9	0	0	0	0	514	503	0	486	38	4	
10	0	0	0	0	509	505	0	501	38	4	
11	0	0	0	0	508	506	0	519	38	4	
12	0	0	0	0	505	505	0	521	38	4	
13	0	0	0	0	503	503	0	514	38	4	
14	0	0	0	0	509	499	0	504	38	4	
15	0	0	0	0	507	494	0	495	38	4	
0	0	0	0	0	508	492	0	489	38	4	
1	0	0	0	0	507	491	0	490	38	4	
2	0	0	0	0	499	492	0	512	38	4	
3	0	0	0	0	513	496	0	517	38	4	
4	0	0	0	0	515	499	0	513	38	4	
5	0	0	0	0	509	503	0	504	38	4	
6	0	0	0	0	504	503	0	497	38	4	
7	0	0	0	0	507	503	0	494	38	4	
8	0	0	0	0	507	503	0	511	38	4	
9	0	0	0	0	503	500	0	520	38	4	
10	0	0	0	0	508	502	0	517	38	4	
11	0	0	0	0	510	501	0	511	38	4	
12	0	0	0	0	507	499	0	504	38	4	
13	0	0	0	0	505	499	0	500	38	4	
14	0	0	0	0	507	499	0	493	38	4	
15	0	0	0	0	510	500	0	491	38	4	
0	0	0	0	0	509	502	0	487	38	4	
1	0	0	0	0	505	504	0	487	38	4	
2	0	0	0	0	504	506	0	506	38	4	
3	0	0	0	0	512	507	0	518	38	4	
4	0	0	0	0	512	508	0	516	38	4	
5	0	0	0	0	508	507	0	510	38	4	
6	0	0	0	0	505	505	0	505	38	4	
7	0	0	0	0	508	504	0	518	38	4	
8	0	0	0	0	504	504	0	520	38	4	
9	0	0	0	0	505	507	0	527	38	4	
10	0	0	0	0	512	507	0	543	38	4	
11	0	0	0	0	502	504	0	543	38	4	
12	0	0	0	0	508	501	0	544	38	4	
13	0	0	0	0	507	499	0	529	38	4	
14	0	0	0	0	504	499	0	519	38	4	
15	0	0	0	0	509	499	0	506	38	4	
0	0	0	0	0	501	500	0	502	38	4	
1	0	0	0	0	510	500	0	516	38	4	
2	0	0	0	0	514	502	0	528	38	4	
3	0	0	0	0	507	504	0	524	38	4	
4	0	0	0	0	509	508	0	516	38	4	
5	0	0	0	0	497	508	0	504	38	4	
6	0	0	0	0	499	509	0	498	38	4	
7	0	0	0	0	516	510	0	488	38	4	
8	0	0	0	0	505	511	0	484	38	4	
9	0	0	0	0	514	509	0	479	38	4	
10	0	0	0	0	509	510	0	481	38	4	
11	0	0	0	0	507	511	0	502	38	4	
12	0	0	0	0	510	512	0	530	38	4	
13	0	0	0	0	503	514	0	511	38	4	
14	0	0	0	0	504	515	0	514	38	4	
15	0	0	0	0	509	517	0	526	38	4	
0	0	0	0	0	509	518	0	527	38	4	
1	0	0	0	0	504	518	0	514	38	4	
2	0	0	0	0	498	519	0	514	38	4	
3	0	0	0	0	505	519	0	505	38	4	
4	0	0	0	0	505	519	0	506	38	4	
5	0	0	0	0	514	520	0	491	38	4	
6	0	0	0	0	505	520	0	487	38	4	
7	0	0	0	0	511	519	0	480	38	4	
8	0	0	0	0	511	518	0	491	38	4	
9	0	0	0	0	508	519	0	482	38	4	
10	0	0	0	0	502	521	0	504	38	4	
11	0	0	0	0	501	523	0	515	38	4	
12	0	0	0	0	511	526	0	515	38	4	
13	0	0	0	0	501	528	0	508	38	4	
14	0	0	0	0	508	525	0	502	38	4	
15	0	0	0	0	508	522	0	496	38	4	
0	0	0	0	0	510	520	0	507	38	4	
1	0	0	0	0	512	521	0	516	38	4	
2	0	0	0	0	512	520	0	512	38	4	
3	0	0	0	0	514	517	0	506	38	4	
4	0	0	0	0	511	515	0	498	38	4	
5	0	0	0	0	510	513	0	490	38	4	
6	0	0	0	0	509	513	0	496	38	4	
7	0	0	0	0	495	515	0	481	38	4	
8	0	0	0	0	511	518	0	487	38	4	
9	0	0	0	0	512	519	0	473	38	4	
10	0	0	0	0	504	519	0	498	38	4	
11	0	0	0	0	505	522	0	509	38	4	
12	0	0	0	0	506	524	0	535	38	4	
13	0	0	0	0	507	523	0	538	38	4	
14	0	0	0	0	511	520	0	545	38	4	
15	0	0	0	0	513	517	0	547	38	4	
0	0	0	0	0	504	516	0	549	38	4	
1	0	0	0	0	502	516	0	540	38	4	
2	0	0	0	0	507	519	0	550	38	4	
3	0	0	0	0	502	522	0	543	38	4	
4	0	0	0	0	509	523	0	528	38	4	
5	0	0	0	0	506	521	0	513	38	4	
6	0	0	0	0	515	521	0	508	38	4	
7	0	0	0	0	506	521	0	507	38	4	
8	0	0	0	0	510	519	0	503	38	4	
9	0	0	0	0	505	514	0	492	38	4	
10	0	0	0	0	504	512	0	504	38	4	
11	0	0	0	0	504	512	0	523	38	4	
12	0	0	0	0	503	511	0	529	38	4	
13	0	0	0	0	508	507	0	522	38	4	
14	0	0	0	0	510	506	0	531	38	4	
15	0	0	0	0	509	507	0	536	38	4	
0	0	0	0	0	505	511	0	526	38	4	
1	0	0	0	0	513	514	0	512	38	4	
2	0	0	0	0	510	513	0	505	38	4	
3	0	0	0	0	504	511	0	493	38	4	
4	0	0	0	0	507	510	0	490	38	4	
5	0	0	0	0	509	508	0	485	38	4	
6	0	0	0	0	507	508	0	484	38	4	
7	0	0	0	0	505	506	0	479	38	4	
8	0	0	0	0	504	505	0	476	38	4	
9	0	0	0	0	508	505	0	474	38	4	
10	0	0	0	0	511	502	0	472	38	4	
11	0	0	0	0	508	500	0	472	38	4	
12	0	0	0	0	508	499	0	473	38	4	
13	0	0	0	0	508	496	0	492	38	4	
14	0	0	0	0	508	493	0	511	38	4	
15	0	0	0	0	508	491	0	517	38	4	
0	0	0	0	0	510	490	0	535	38	4	
1	0	0	0	0	508	488	0	536	38	4	
2	0	0	0	0	504	489	0	543	38	4	
3	0	0	0	0	505	492	0	549	38	4	
4	0	0	0	0	505	496	0	540	38	4	
5	0	0	0	0	509	498	0	526	38	4	
6	0	0	0	0	509	497	0	534	38	4	
7	0	0	0	0	513	498	0	534	38	4	
8	0	0	0	0	504	500	0	524	38	4	
9	0	0	0	0	504	499	0	511	38	4	
10	0	0	0	0	506	496	0	500	38	4	
11	0	0	0	0	512	495	0	489	38	4	
12	0	0	0	0	507	495	0	482	38	4	
13	0	0	0	0	508	495	0	477	38	4	
14	0	0	0	0	508	491	0	474	38	4	
15	0	0	0	0	511	488	0	473	38	4	
0	0	0	0	0	510	488	0	472	38	4	
1	0	0	0	0	512	488	0	471	38	4	
2	0	0	0	0	499	489	0	472	38	4	
3	0	0	0	0	513	489	0	471	38	4	
4	0	0	0	0	504	488	0	476	38	4	
5	0	0	0	0	504	487	0	499	38	4	
6	0	0	0	0	503	487	0	515	38	4	
7	0	0	0	0	508	487	0	528	38	5	
8	0	0	0	0	509	487	0	539	38	4	
9	0	0	0	0	504	489	0	532	38	4	
10	0	0	0	0	506	492	0	518	38	4	
11	0	0	0	0	507	493	0	505	38	4	
12	0	0	0	0	509	495	0	493	38	4	
13	0	0	0	0	506	496	0	489	38	4	
14	0	0	0	0	504	496	0	484	38	5	
15	0	0	0	0	513	496	0	483	38	5	
0	0	0	0	0	508	496	0	478	38	5	
1	0	0	0	0	509	497	0	491	38	5	
2	0	0	0	0	506	496	0	511	38	5	
3	0	0	0	0	503	495	0	518	38	5	
4	0	0	0	0	509	494	0	513	38	5	
5	0	0	0	0	507	492	0	518	38	5	
6	0	0	0	0	513	494	0	511	38	5	
7	0	0	0	0	505	494	0	510	38	5	
8	0	0	0	0	504	493	0	528	38	5	
9	0	0	0	0	512	489	0	536	38	5	
10	0	0	0	0	509	488	0	524	38	5	
11	0	0	0	0	508	490	0	514	38	5	
12	0	0	0	0	508	491	0	501	38	5	
13	0	0	0	0	506	493	0	495	38	5	
14	0	0	0	0	504	494	0	487	38	5	
15	0	0	0	0	510	493	0	485	38	5	
0	0	0	0	0	514	494	0	480	38	5	
1	0	0	0	0	504	492	0	486	38	5	
2	0	0	0	0	510	492	0	507	38	5	
3	0	0	0	0	505	492	0	518	38	5	
4	0	0	0	0	508	491	0	508	38	5	
5	0	0	0	0	505	493	0	517	38	5	
6	0	0	0	0	512	493	0	492	38	5	
7	0	0	0	0	506	493	0	485	38	5	
8	0	0	0	0	503	493	0	475	38	5	
9	0	0	0	0	508	496	0	468	38	5	
10	0	0	0	0	508	497	0	465	38	5	
11	0	0	0	0	515	498	0	463	38	5	
12	0	0	0	0	508	500	0	464	38	5	
13	0	0	0	0	508	500	0	464	38	5	
14	0	0	0	0	509	500	0	464	38	5	
15	0	0	0	0	504	500	0	465	38	5	
0	0	0	0	0	510	497	0	460	38	5	
1	0	0	0	0	506	496	0	461	38	5	
2	0	0	0	0	508	494	0	459	38	5	
3	0	0	0	0	504	496	0	461	38	5	
4	0	0	0	0	510	502	0	463	38	5	
5	0	0	0	0	509	508	0	465	38	5	
6	0	0	0	0	505	515	0	471	38	5	
7	0	0	0	0	506	519	0	465	38	5	
8	0	0	0	0	499	523	0	465	38	5	
9	0	0	0	0	514	528	0	461	38	5	
10	0	0	0	0	502	531	0	471	38	5	
11	0	0	0	0	508	536	0	497	38	5	
12	0	0	0	0	507	544	0	512	38	5	
13	0	0	0	0	509	549	0	508	38	5	
14	0	0	0	0	509	556	0	501	38	5	
15	0	0	0	0	507	556	0	491	38	5	
0	0	0	0	0	517	556	0	479	38	5	
1	0	0	0	0	509	556	0	467	38	6	
2	0	0	0	0	508	558	0	463	38	5	
3	0	0	0	0	509	567	0	463	38	6	
4	0	0	0	0	505	578	0	462	38	5	
5	0	0	0	0	511	588	0	465	38	5	
6	0	0	0	0	502	597	0	467	38	5	
7	0	0	0	0	507	606	0	485	38	5	
8	0	0	0	0	511	616	0	502	38	6	
9	0	0	0	0	512	624	0	507	38	6	
10	0	0	0	0	510	628	0	528	38	6	
11	0	0	0	0	509	635	0	536	38	6	
12	0	0	0	0	504	645	0	545	38	6	
13	0	0	0	0	510	655	0	552	38	5	
14	0	0	0	0	510	660	0	546	38	5	
15	0	0	0	0	509	663	0	557	38	6	
0	0	0	0	0	503	663	0	550	38	6	
1	0	0	0	0	508	662	0	552	38	6	
2	0	0	0	0	507	664	0	556	38	6	
3	0	0	0	0	512	667	0	551	38	6	
4	0	0	0	0	509	671	0	558	38	6	
5	0	0	0	0	506	672	0	557	38	6	
6	0	0	0	0	508	672	0	556	38	6	
7	0	0	0	0	509	669	0	555	38	6	
8	0	0	0	0	506	654	0	539	38	6	
9	0	0	0	0	505	631	0	530	38	6	
10	0	0	0	0	508	596	0	516	38	6	
11	0	0	0	0	509	559	0	502	38	6	
12	0	0	0	0	504	523	0	493	38	6	
13	0	0	0	0	513	487	0	486	38	6	
14	0	0	0	0	511	455	0	482	38	6	
15	0	0	0	0	499	425	0	478	38	6	
0	0	0	0	0	507	398	0	473	38	6	
1	0	0	0	0	507	379	0	473	38	6	
2	0	0	0	0	505	361	0	471	38	6	
3	0	0	0	0	507	350	0	471	38	6	
4	0	0	0	0	503	344	0	468	38	6	
5	0	0	0	0	507	344	0	467	38	6	
6	0	0	0	0	505	348	0	480	38	6	
7	0	0	0	0	509	354	0	502	38	6	
8	0	0	0	0	504	359	0	509	38	6	
9	0	0	0	0	511	364	0	526	38	6	
10	0	0	0	0	507	372	0	534	38	6	
11	0	0	0	0	507	384	0	525	38	6	
12	0	0	0	0	512	399	0	515	38	6	
13	0	0	0	0	505	415	0	502	38	6	
14	0	0	0	0	508	431	0	494	38	6	
15	0	0	0	0	512	441	0	485	38	6	
0	0	0	0	0	506	450	0	493	38	6	
1	0	0	0	0	509	460	0	506	38	6	
2	0	0	0	0	504	470	0	508	38	6	
3	0	0	0	0	507	476	0	503	38	6	
4	0	0	0	0	509	481	0	495	38	6	
5	0	0	0	0	504	486	0	499	38	6	
6	0	0	0	0	504	491	0	499	38	6	
7	0	0	0	0	514	496	0	497	38	6	
8	0	0	0	0	513	499	0	517	38	6	
9	0	0	0	0	513	501	0	528	38	6	
10	0	0	0	0	512	503	0	527	38	6	
11	0	0	0	0	502	504	0	516	38	6	
12	0	0	0	0	504	506	0	508	38	6	
13	0	0	0	0	507	509	0	497	38	6	
14	0	0	0	0	505	509	0	507	38	6	
15	0	0	0	0	503	509	0	486	38	6	
0	0	0	0	0	511	508	0	498	38	6	
1	0	0	0	0	511	509	0	484	38	6	
2	0	0	0	0	508	509	0	509	38	6	
3	0	0	0	0	505	510	0	520	38	6	
4	0	0	0	0	505	508	0	523	38	6	
5	0	0	0	0	510	505	0	513	38	6	
6	0	0	0	0	508	505	0	508	38	6	
7	0	0	0	0	516	506	0	501	38	6	
8	0	0	0	0	505	509	0	511	38	6	
9	0	0	0	0	504	513	0	522	38	6	
10	0	0	0	0	500	517	0	521	38	6	
11	0	0	0	0	499	518	0	518	38	6	
12	0	0	0	0	507	517	0	510	38	6	
13	0	0	0	0	515	515	0	504	38	6	
14	0	0	0	0	507	515	0	499	38	6	
15	0	0	0	0	508	515	0	497	38	6	
0	0	0	0	0	508	516	0	494	38	6	
1	0	0	0	0	516	519	0	490	38	6	
2	0	0	0	0	507	519	0	504	38	6	
3	0	0	0	0	508	521	0	525	38	6	
4	0	0	0	0	506	523	0	526	38	6	
5	0	0	0	0	500	523	0	520	38	6	
6	0	0	0	0	504	521	0	511	38	6	
7	0	0	0	0	508	518	0	499	38	6	
8	0	0	0	0	508	518	0	489	38	6	
9	0	0	0	0	511	519	0	481	38	6	
10	0	0	0	0	506	519	0	481	38	6	
11	0	0	0	0	510	520	0	483	38	6	
12	0	0	0	0	512	520	0	501	38	6	
13	0	0	0	0	503	520	0	524	38	6	
14	0	0	0	0	512	521	0	525	38	6	
15	0	0	0	0	507	520	0	516	38	6	
0	0	0	0	0	517	516	0	503	38	6	
1	0	0	0	0	507	516	0	492	38	6	
2	0	0	0	0	510	518	0	489	38	6	
3	0	0	0	0	507	518	0	489	38	6	
4	0	0	0	0	507	521	0	489	38	6	
5	0	0	0	0	504	526	0	491	38	6	
6	0	0	0	0	507	530	0	490	38	6	
7	0	0	0	0	501	529	0	507	38	6	
8	0	0	0	0	505	524	0	488	38	6	
9	0	0	0	0	511	523	0	488	38	6	
10	0	0	0	0	508	524	0	488	38	6	
11	0	0	0	0	510	524	0	511	38	6	
12	0	0	0	0	505	524	0	535	38	6	
13	0	0	0	0	504	524	0	548	38	6	
14	0	0	0	0	509	525	0	568	38	6	
15	0	0	0	0	506	524	0	569	38	6	
0	0	0	0	0	508	519	0	550	38	6	
1	0	0	0	0	502	518	0	548	38	6	
2	0	0	0	0	503	519	0	559	38	6	
3	0	0	0	0	511	523	0	559	38	6	
4	0	0	0	0	510	523	0	571	38	6	
5	0	0	0	0	511	523	0	579	38	6	
6	0	0	0	0	502	521	0	579	38	6	
7	0	0	0	0	504	520	0	587	38	6	
8	0	0	0	0	509	521	0	577	38	6	
9	0	0	0	0	509	521	0	584	38	6	
10	0	0	0	0	510	519	0	581	38	6	
11	0	0	0	0	510	519	0	589	38	6	
12	0	0	0	0	510	516	0	586	38	6	
13	0	0	0	0	500	513	0	581	38	6	
14	0	0	0	0	514	510	0	583	38	6	
15	0	0	0	0	513	510	0	575	38	6	
0	0	0	0	0	508	510	0	568	38	6	
1	0	0	0	0	503	510	0	574	38	6	
2	0	0	0	0	508	510	0	561	38	6	
3	0	0	0	0	504	513	0	547	38	6	
4	0	0	0	0	507	514	0	549	38	6	
5	0	0	0	0	511	516	0	558	38	6	
6	0	0	0	0	508	515	0	549	38	6	
7	0	0	0	0	511	515	0	541	38	6	
8	0	0	0	0	504	517	0	550	38	6	
9	0	0	0	0	510	520	0	556	38	6	
10	0	0	0	0	504	522	0	545	38	6	
11	0	0	0	0	508	523	0	536	38	6	
12	0	0	0	0	513	523	0	523	38	6	
13	0	0	0	0	505	524	0	515	38	6	
14	0	0	0	0	508	523	0	505	38	6	
15	0	0	0	0	506	522	0	501	38	6	
0	0	0	0	0	507	520	0	496	38	6	
1	0	0	0	0	506	520	0	493	38	6	
2	0	0	0	0	509	520	0	513	38	6	
3	0	0	0	0	513	519	0	528	38	6	
4	0	0	0	0	510	521	0	525	38	6	
5	0	0	0	0	508	522	0	526	38	6	
6	0	0	0	0	504	523	0	524	38	6	
7	0	0	0	0	513	523	0	519	38	6	
8	0	0	0	0	505	522	0	526	38	6	
9	0	0	0	0	510	524	0	541	38	6	
10	0	0	0	0	510	523	0	536	38	6	
11	0	0	0	0	505	524	0	529	38	6	
12	0	0	0	0	505	526	0	517	38	6	
13	0	0	0	0	510	527	0	508	38	6	
14	0	0	0	0	510	526	0	500	38	6	
15	0	0	0	0	509	524	0	499	38	6	
0	0	0	0	0	507	524	0	494	38	6	
1	0	0	0	0	504	525	0	492	38	6	
2	0	0	0	0	502	526	0	506	38	6	
3	0	0	0	0	505	527	0	529	38	6	
4	0	0	0	0	513	527	0	532	38	6	
5	0	0	0	0	512	527	0	532	38	6	
6	0	0	0	0	504	527	0	545	38	6	
7	0	0	0	0	509	527	0	550	38	6	
8	0	0	0	0	506	529	0	536	38	6	
9	0	0	0	0	507	529	0	540	38	6	
10	0	0	0	0	508	529	0	515	38	6	
11	0	0	0	0	512	530	0	509	38	6	
12	0	0	0	0	507	532	0	502	38	6	
13	0	0	0	0	508	532	0	499	38	6	
14	0	0	0	0	504	534	0	496	38	6	
15	0	0	0	0	504	536	0	495	38	6	
0	0	0	0	0	512	539	0	493	38	6	
1	0	0	0	0	511	541	0	495	38	6	
2	0	0	0	0	510	540	0	489	38	6	
3	0	0	0	0	508	536	0	492	38	6	
4	0	0	0	0	500	532	0	489	38	6	
5	0	0	0	0	509	531	0	516	38	6	
6	0	0	0	0	510	530	0	527	38	6	
7	0	0	0	0	510	531	0	540	38	6	
8	0	0	0	0	508	534	0	550	38	6	
9	0	0	0	0	507	537	0	547	38	6	
10	0	0	0	0	510	538	0	543	38	6	
11	0	0	0	0	505	539	0	531	38	6	
12	0	0	0	0	509	543	0	517	38	6	
13	0	0	0	0	508	545	0	506	38	6	
14	0	0	0	0	510	546	0	499	38	6	
15	0	0	0	0	504	546	0	493	38	6	
0	0	0	0	0	510	547	0	489	38	6	
1	0	0	0	0	504	550	0	486	38	6	
2	0	0	0	0	503	550	0	484	38	6	
3	0	0	0	0	501	548	0	484	38	6	
4	0	0	0	0	507	545	0	483	38	6	
5	0	0	0	0	515	543	0	481	38	6	
6	0	0	0	0	510	543	0	482	38	6	
7	0	0	0	0	507	542	0	490	38	6	
8	0	0	0	0	507	542	0	515	38	6	
9	0	0	0	0	513	542	0	524	38	6	
10	0	0	0	0	515	544	0	540	38	6	
11	0	0	0	0	508	545	0	553	38	6	
12	0	0	0	0	505	544	0	549	38	6	
13	0	0	0	0	506	545	0	535	38	6	
14	0	0	0	0	508	547	0	523	38	6	
15	0	0	0	0	502	548	0	510	38	6	
0	0	0	0	0	509	548	0	514	38	6	
1	0	0	0	0	502	547	0	528	38	6	
2	0	0	0	0	512	548	0	528	38	6	
3	0	0	0	0	504	547	0	523	38	6	
4	0	0	0	0	512	545	0	513	38	6	
5	0	0	0	0	502	545	0	515	38	6	
6	0	0	0	0	513	546	0	513	38	6	
7	0	0	0	0	507	551	0	509	38	6	
8	0	0	0	0	503	553	0	505	38	6	
9	0	0	0	0	505	554	0	499	38	6	
10	0	0	0	0	513	551	0	509	38	6	
11	0	0	0	0	504	551	0	529	38	6	
12	0	0	0	0	504	551	0	533	38	6	
13	0	0	0	0	512	550	0	524	38	6	
14	0	0	0	0	511	550	0	513	38	6	
15	0	0	0	0	506	551	0	505	38	6	
0	0	0	0	0	507	550	0	505	38	6	
1	0	0	0	0	509	548	0	522	38	6	
2	0	0	0	0	505	546	0	528	38	6	
3	0	0	0	0	500	545	0	522	38	6	
4	0	0	0	0	499	547	0	515	38	6	
5	0	0	0	0	510	547	0	506	38	6	
6	0	0	0	0	504	547	0	501	38	6	
7	0	0	0	0	511	548	0	496	38	6	
8	0	0	0	0	513	549	0	494	38	6	
9	0	0	0	0	509	552	0	490	38	6	
10	0	0	0	0	512	555	0	499	38	6	
11	0	0	0	0	503	556	0	518	38	6	
12	0	0	0	0	504	556	0	537	38	6	
13	0	0	0	0	513	552	0	519	38	6	
14	0	0	0	0	511	551	0	524	38	6	
15	0	0	0	0	510	549	0	533	38	6	
0	0	0	0	0	510	546	0	533	38	6	
1	0	0	0	0	507	542	0	540	38	6	
2	0	0	0	0	502	539	0	545	38	6	
3	0	0	0	0	515	537	0	533	38	6	
4	0	0	0	0	508	536	0	520	38	6	
5	0	0	0	0	508	536	0	510	38	6	
6	0	0	0	0	510	538	0	510	38	6	
7	0	0	0	0	506	539	0	504	38	6	
8	0	0	0	0	513	541	0	510	38	6	
9	0	0	0	0	505	543	0	529	38	6	
10	0	0	0	0	503	543	0	531	38	6	
11	0	0	0	0	505	543	0	522	38	6	
12	0	0	0	0	507	541	0	511	38	6	
13	0	0	0	0	507	538	0	502	38	6	
14	0	0	0	0	507	534	0	496	38	6	
15	0	0	0	0	508	534	0	488	38	6	
0	0	0	0	0	501	539	0	484	38	6	
1	0	0	0	0	508	540	0	479	38	6	
2	0	0	0	0	510	540	0	491	38	6	
3	0	0	0	0	508	538	0	512	38	6	
4	0	0	0	0	507	534	0	516	38	6	
5	0	0	0	0	511	529	0	512	38	6	
6	0	0	0	0	502	527	0	519	38	6	
7	0	0	0	0	512	527	0	527	38	6	
8	0	0	0	0	511	529	0	518	38	6	
9	0	0	0	0	502	528	0	507	38	6	
10	0	0	0	0	505	526	0	497	38	6	
11	0	0	0	0	513	521	0	488	38	6	
12	0	0	0	0	512	518	0	483	38	6	
13	0	0	0	0	511	515	0	480	38	6	
14	0	0	0	0	504	512	0	479	38	6	
15	0	0	0	0	507	509	0	476	38	6	
0	0	0	0	0	508	507	0	473	38	6	
1	0	0	0	0	506	506	0	472	38	6	
2	0	0	0	0	508	504	0	470	38	6	
3	0	0	0	0	504	503	0	471	38	6	
4	0	0	0	0	508	502	0	471	38	6	
5	0	0	0	0	502	500	0	497	38	6	
6	0	0	0	0	512	500	0	510	38	6	
7	0	0	0	0	507	498	0	520	38	6	
8	0	0	0	0	512	496	0	537	38	6	
9	0	0	0	0	506	495	0	542	38	6	
10	0	0	0	0	506	496	0	542	38	6	
11	0	0	0	0	508	497	0	535	38	6	
12	0	0	0	0	512	495	0	520	38	6	
13	0	0	0	0	504	493	0	508	38	6	
14	0	0	0	0	510	493	0	498	38	6	
15	0	0	0	0	516	490	0	489	38	6	
0	0	0	0	0	503	487	0	485	38	6	
1	0	0	0	0	504	484	0	482	38	6	
2	0	0	0	0	505	483	0	484	38	6	
3	0	0	0	0	508	484	0	505	38	6	
4	0	0	0	0	515	483	0	520	38	6	
5	0	0	0	0	512	483	0	519	38	6	
6	0	0	0	0	509	481	0	526	38	6	
7	0	0	0	0	510	480	0	535	38	6	
8	0	0	0	0	498	482	0	540	38	6	
9	0	0	0	0	504	482	0	546	38	6	
10	0	0	0	0	504	482	0	558	38	6	
11	0	0	0	0	508	481	0	547	38	6	
12	0	0	0	0	511	483	0	534	38	6	
13	0	0	0	0	508	483	0	518	38	6	
14	0	0	0	0	510	481	0	508	38	6	
15	0	0	0	0	507	480	0	509	38	6	
0	0	0	0	0	504	478	0	521	38	6	
1	0	0	0	0	509	477	0	518	38	6	
2	0	0	0	0	513	476	0	512	38	6	
3	0	0	0	0	504	474	0	512	38	6	
4	0	0	0	0	506	472	0	509	38	6	
5	0	0	0	0	507	470	0	500	38	6	
6	0	0	0	0	508	470	0	494	38	6	
7	0	0	0	0	504	470	0	490	38	6	
8	0	0	0	0	508	470	0	484	38	6	
9	0	0	0	0	514	470	0	482	38	6	
10	0	0	0	0	509	471	0	486	38	6	
11	0	0	0	0	509	474	0	510	38	6	
12	0	0	0	0	509	475	0	518	38	6	
13	0	0	0	0	502	474	0	515	38	6	
14	0	0	0	0	507	475	0	507	38	6	
15	0	0	0	0	506	475	0	500	38	6	
0	0	0	0	0	508	476	0	496	38	6	
1	0	0	0	0	507	475	0	513	38	6	
2	0	0	0	0	513	473	0	524	38	6	
3	0	0	0	0	509	472	0	522	38	6	
4	0	0	0	0	504	471	0	515	38	6	
5	0	0	0	0	501	471	0	507	38	6	
6	0	0	0	0	500	471	0	500	38	6	
7	0	0	0	0	507	470	0	509	38	6	
8	0	0	0	0	510	469	0	488	38	6	
9	0	0	0	0	512	468	0	497	38	6	
10	0	0	0	0	511	466	0	485	38	6	
11	0	0	0	0	512	465	0	509	38	6	
12	0	0	0	0	510	465	0	524	38	6	
13	0	0	0	0	507	464	0	539	38	6	
14	0	0	0	0	505	462	0	556	38	6	
15	0	0	0	0	509	461	0	553	38	6	
0	0	0	0	0	509	461	0	562	38	6	
1	0	0	0	0	512	461	0	563	38	6	
2	0	0	0	0	504	462	0	550	38	6	
3	0	0	0	0	506	463	0	543	38	6	
4	0	0	0	0	506	467	0	536	38	6	
5	0	0	0	0	507	471	0	538	38	6	
6	0	0	0	0	503	471	0	515	38	6	
7	0	0	0	0	504	471	0	509	38	6	
8	0	0	0	0	504	473	0	503	38	6	
9	0	0	0	0	503	472	0	500	38	6	
10	0	0	0	0	506	470	0	495	38	6	
11	0	0	0	0	506	469	0	510	38	6	
12	0	0	0	0	511	468	0	528	38	6	
13	0	0	0	0	513	468	0	530	38	6	
14	0	0	0	0	505	468	0	527	38	6	
15	0	0	0	0	507	468	0	540	38	6	
0	0	0	0	0	509	470	0	548	38	6	
1	0	0	0	0	503	471	0	538	38	6	
2	0	0	0	0	510	467	0	526	38	6	
3	0	0	0	0	504	465	0	516	38	6	
4	0	0	0	0	507	464	0	508	38	6	
5	0	0	0	0	511	463	0	500	38	6	
6	0	0	0	0	511	463	0	497	38	6	
7	0	0	0	0	515	465	0	494	38	6	
8	0	0	0	0	505	466	0	495	38	6	
9	0	0	0	0	503	469	0	514	38	6	
10	0	0	0	0	509	473	0	536	38	6	
11	0	0	0	0	504	475	0	527	38	6	
12	0	0	0	0	508	475	0	531	38	6	
13	0	0	0	0	505	476	0	513	38	6	
14	0	0	0	0	510	476	0	511	38	6	
15	0	0	0	0	509	474	0	502	38	6	
0	0	0	0	0	508	473	0	512	38	6	
1	0	0	0	0	506	472	0	526	38	6	
2	0	0	0	0	509	470	0	530	38	6	
3	0	0	0	0	512	470	0	524	38	6	
4	0	0	0	0	504	469	0	529	38	6	
5	0	0	0	0	505	470	0	524	38	6	
6	0	0	0	0	508	470	0	516	38	6	
7	0	0	0	0	502	471	0	510	38	6	
8	0	0	0	0	511	472	0	504	38	6	
9	0	0	0	0	507	472	0	500	38	6	
10	0	0	0	0	506	472	0	497	38	6	
11	0	0	0	0	505	472	0	501	38	6	
12	0	0	0	0	509	472	0	527	38	6	
13	0	0	0	0	514	472	0	537	38	6	
14	0	0	0	0	512	470	0	531	38	6	
15	0	0	0	0	508	467	0	535	38	6	
0	0	0	0	0	503	465	0	544	38	6	
1	0	0	0	0	508	464	0	539	38	6	
2	0	0	0	0	500	463	0	527	38	6	
3	0	0	0	0	511	464	0	517	38	6	
4	0	0	0	0	514	466	0	506	38	6	
5	0	0	0	0	503	467	0	503	38	6	
6	0	0	0	0	510	469	0	497	38	6	
7	0	0	0	0	510	470	0	503	38	6	
8	0	0	0	0	506	470	0	489	38	6	
9	0	0	0	0	499	471	0	503	38	6	
10	0	0	0	0	514	472	0	522	38	6	
11	0	0	0	0	499	473	0	530	38	6	
12	0	0	0	0	507	476	0	521	38	6	
13	0	0	0	0	510	477	0	513	38	6	
14	0	0	0	0	507	479	0	504	38	6	
15	0	0	0	0	507	477	0	504	38	6	
0	0	0	0	0	509	476	0	518	38	6	
1	0	0	0	0	513	476	0	525	38	6	
2	0	0	0	0	505	475	0	517	38	6	
3	0	0	0	0	511	473	0	519	38	6	
4	0	0	0	0	510	472	0	516	38	6	
5	0	0	0	0	504	471	0	509	38	6	
6	0	0	0	0	509	472	0	504	38	6	
7	0	0	0	0	512	471	0	496	38	6	
8	0	0	0	0	508	472	0	493	38	6	
9	0	0	0	0	506	473	0	490	38	6	
10	0	0	0	0	505	475	0	490	38	6	
11	0	0	0	0	511	474	0	512	38	6	
12	0	0	0	0	506	475	0	526	38	6	
13	0	0	0	0	504	474	0	536	38	6	
14	0	0	0	0	508	475	0	550	38	6	
15	0	0	0	0	512	478	0	546	38	6	
0	0	0	0	0	510	478	0	550	38	6	
1	0	0	0	0	503	478	0	548	38	6	
2	0	0	0	0	505	476	0	547	38	6	
3	0	0	0	0	505	476	0	560	38	6	
4	0	0	0	0	511	477	0	552	38	6	
5	0	0	0	0	506	480	0	539	38	6	
6	0	0	0	0	513	480	0	539	38	6	
7	0	0	0	0	505	479	0	543	38	6	
8	0	0	0	0	508	476	0	527	38	6	
9	0	0	0	0	505	472	0	515	38	6	
10	0	0	0	0	515	468	0	502	38	6	
11	0	0	0	0	504	468	0	492	38	6	
12	0	0	0	0	500	470	0	486	38	6	
13	0	0	0	0	509	475	0	483	38	6	
14	0	0	0	0	505	481	0	481	38	6	
15	0	0	0	0	508	485	0	478	38	6	
0	0	0	0	0	511	488	0	475	38	6	
1	0	0	0	0	512	492	0	472	38	6	
2	0	0	0	0	514	493	0	477	38	6	
3	0	0	0	0	500	494	0	504	38	6	
4	0	0	0	0	510	492	0	513	38	6	
5	0	0	0	0	508	489	0	508	38	6	
6	0	0	0	0	514	488	0	514	38	6	
7	0	0	0	0	510	487	0	527	38	6	
8	0	0	0	0	505	487	0	526	38	6	
9	0	0	0	0	506	487	0	523	38	6	
10	0	0	0	0	512	487	0	513	38	6	
11	0	0	0	0	503	489	0	501	38	6	
12	0	0	0	0	506	493	0	492	38	6	
13	0	0	0	0	506	496	0	484	38	6	
14	0	0	0	0	507	496	0	479	38	6	
15	0	0	0	0	509	494	0	474	38	6	
0	0	0	0	0	511	493	0	471	38	6	
1	0	0	0	0	504	492	0	470	38	6	
2	0	0	0	0	507	490	0	469	38	6	
3	0	0	0	0	512	486	0	466	38	6	
4	0	0	0	0	505	482	0	464	38	6	
5	0	0	0	0	502	481	0	464	38	6	
6	0	0	0	0	510	482	0	472	38	6	
7	0	0	0	0	504	484	0	495	38	6	
8	0	0	0	0	508	485	0	505	38	6	
9	0	0	0	0	503	486	0	516	38	6	
10	0	0	0	0	505	486	0	533	38	6	
11	0	0	0	0	508	485	0	526	38	6	
12	0	0	0	0	512	485	0	514	38	6	
13	0	0	0	0	508	486	0	498	38	6	
14	0	0	0	0	507	486	0	489	38	6	
15	0	0	0	0	509	487	0	479	38	6	
0	0	0	0	0	503	490	0	480	38	6	
1	0	0	0	0	502	493	0	498	38	6	
2	0	0	0	0	506	493	0	502	38	6	
3	0	0	0	0	512	492	0	496	38	6	
4	0	0	0	0	508	489	0	489	38	6	
5	0	0	0	0	518	489	0	488	38	6	
6	0	0	0	0	503	491	0	492	38	6	
7	0	0	0	0	501	491	0	487	38	6	
8	0	0	0	0	508	488	0	497	38	6	
9	0	0	0	0	519	486	0	510	38	6	
10	0	0	0	0	512	483	0	508	38	6	
11	0	0	0	0	505	481	0	500	38	6	
12	0	0	0	0	511	480	0	491	38	6	
13	0	0	0	0	500	481	0	481	38	6	
14	0	0	0	0	505	484	0	476	38	6	
15	0	0	0	0	507	485	0	472	38	6	
0	0	0	0	0	508	484	0	471	38	6	
1	0	0	0	0	513	483	0	464	38	6	
2	0	0	0	0	507	483	0	479	38	6	
3	0	0	0	0	508	482	0	499	38	6	
4	0	0	0	0	512	480	0	501	38	6	
5	0	0	0	0	509	481	0	496	38	6	
6	0	0	0	0	507	486	0	508	38	6	
7	0	0	0	0	508	488	0	509	38	6	
8	0	0	0	0	498	490	0	498	38	6	
9	0	0	0	0	503	488	0	487	38	6	
10	0	0	0	0	507	486	0	477	38	6	
11	0	0	0	0	510	484	0	471	38	6	
12	0	0	0	0	503	483	0	469	38	6	
13	0	0	0	0	507	483	0	466	38	6	
14	0	0	0	0	505	483	0	461	38	6	
15	0	0	0	0	506	482	0	462	38	6	
0	0	0	0	0	510	482	0	462	38	6	
1	0	0	0	0	512	480	0	459	38	6	
2	0	0	0	0	508	482	0	461	38	6	
3	0	0	0	0	504	486	0	456	38	6	
4	0	0	0	0	512	489	0	462	38	6	
5	0	0	0	0	512	490	0	485	38	6	
6	0	0	0	0	503	489	0	500	38	6	
7	0	0	0	0	505	487	0	511	38	6	
8	0	0	0	0	508	486	0	525	38	6	
9	0	0	0	0	507	485	0	523	38	6	
10	0	0	0	0	502	485	0	520	38	6	
11	0	0	0	0	508	483	0	510	38	6	
12	0	0	0	0	507	481	0	497	38	6	
13	0	0	0	0	509	479	0	488	38	6	
14	0	0	0	0	513	479	0	480	38	6	
15	0	0	0	0	502	478	0	476	38	6	
0	0	0	0	0	503	477	0	471	38	6	
1	0	0	0	0	512	480	0	469	38	6	
2	0	0	0	0	509	482	0	465	38	6	
3	0	0	0	0	510	485	0	467	38	6	
4	0	0	0	0	508	487	0	462	38	6	
5	0	0	0	0	511	488	0	460	38	6	
6	0	0	0	0	503	488	0	460	38	6	
7	0	0	0	0	511	488	0	468	38	6	
8	0	0	0	0	507	487	0	492	38	6	
9	0	0	0	0	506	486	0	501	38	6	
10	0	0	0	0	507	487	0	513	38	6	
11	0	0	0	0	508	489	0	526	38	6	
12	0	0	0	0	512	491	0	521	38	6	
13	0	0	0	0	508	492	0	509	38	6	
14	0	0	0	0	504	492	0	497	38	6	
15	0	0	0	0	506	490	0	486	38	6	
0	0	0	0	0	503	487	0	491	38	6	
1	0	0	0	0	507	485	0	503	38	6	
2	0	0	0	0	512	485	0	504	38	6	
3	0	0	0	0	510	486	0	499	38	6	
4	0	0	0	0	508	485	0	491	38	6	
5	0	0	0	0	505	484	0	492	38	6	
6	0	0	0	0	512	484	0	490	38	6	
7	0	0	0	0	512	485	0	484	38	6	
8	0	0	0	0	515	486	0	483	38	6	
9	0	0	0	0	504	485	0	494	38	6	
10	0	0	0	0	507	485	0	511	38	6	
11	0	0	0	0	506	485	0	509	38	6	
12	0	0	0	0	508	486	0	505	38	6	
13	0	0	0	0	511	487	0	492	38	6	
14	0	0	0	0	506	486	0	484	38	6	
15	0	0	0	0	506	487	0	476	38	6	
0	0	0	0	0	504	486	0	473	38	6	
1	0	0	0	0	507	486	0	469	38	6	
2	0	0	0	0	511	481	0	487	38	6	
3	0	0	0	0	505	477	0	503	38	6	
4	0	0	0	0	507	477	0	502	38	6	
5	0	0	0	0	511	478	0	498	38	6	
6	0	0	0	0	512	479	0	490	38	6	
7	0	0	0	0	508	482	0	485	38	6	
8	0	0	0	0	506	483	0	494	38	6	
9	0	0	0	0	511	484	0	506	38	6	
10	0	0	0	0	505	484	0	504	38	6	
11	0	0	0	0	500	482	0	497	38	6	
12	0	0	0	0	512	478	0	489	38	6	
13	0	0	0	0	512	477	0	481	38	6	
14	0	0	0	0	504	477	0	476	38	6	
15	0	0	0	0	504	476	0	471	38	6	
0	0	0	0	0	501	477	0	470	38	6	
1	0	0	0	0	512	477	0	465	38	6	
2	0	0	0	0	506	477	0	479	38	6	
3	0	0	0	0	507	477	0	503	38	6	
4	0	0	0	0	503	478	0	505	38	6	
5	0	0	0	0	506	481	0	503	38	6	
6	0	0	0	0	509	483	0	516	38	6	
7	0	0	0	0	504	483	0	519	38	6	
8	0	0	0	0	510	484	0	518	38	6	
9	0	0	0	0	509	485	0	513	38	6	
10	0	0	0	0	507	485	0	503	38	6	
11	0	0	0	0	507	483	0	494	38	6	
12	0	0	0	0	509	481	0	484	38	6	
13	0	0	0	0	503	481	0	479	38	6	
14	0	0	0	0	502	481	0	476	38	6	
15	0	0	0	0	510	481	0	475	38	6	
0	0	0	0	0	503	480	0	472	38	6	
1	0	0	0	0	509	481	0	471	38	6	
2	0	0	0	0	511	482	0	470	38	6	
3	0	0	0	0	506	482	0	467	38	6	
4	0	0	0	0	508	481	0	470	38	6	
5	0	0	0	0	513	480	0	468	38	6	
6	0	0	0	0	510	480	0	486	38	6	
7	0	0	0	0	508	478	0	507	38	6	
8	0	0	0	0	504	475	0	514	38	6	
9	0	0	0	0	504	472	0	533	38	6	
10	0	0	0	0	512	472	0	532	38	6	
11	0	0	0	0	505	475	0	519	38	6	
12	0	0	0	0	509	479	0	505	38	6	
13	0	0	0	0	506	481	0	495	38	6	
14	0	0	0	0	507	483	0	486	38	6	
15	0	0	0	0	502	484	0	481	38	6	
0	0	0	0	0	510	486	0	492	38	6	
1	0	0	0	0	511	486	0	505	38	6	
2	0	0	0	0	510	486	0	503	38	6	
3	0	0	0	0	505	486	0	498	38	6	
4	0	0	0	0	509	485	0	489	38	6	
5	0	0	0	0	504	484	0	494	38	6	
6	0	0	0	0	507	485	0	491	38	6	
7	0	0	0	0	507	487	0	483	38	6	
8	0	0	0	0	500	491	0	478	38	6	
9	0	0	0	0	508	492	0	475	38	6	
10	0	0	0	0	508	491	0	490	38	6	
11	0	0	0	0	505	491	0	510	38	6	
12	0	0	0	0	509	492	0	511	38	6	
13	0	0	0	0	503	494	0	503	38	6	
14	0	0	0	0	509	496	0	495	38	6	
15	0	0	0	0	503	496	0	486	38	6	
0	0	0	0	0	510	496	0	481	38	6	
1	0	0	0	0	508	493	0	483	38	6	
2	0	0	0	0	507	493	0	505	38	6	
3	0	0	0	0	505	493	0	511	38	6	
4	0	0	0	0	509	493	0	504	38	6	
5	0	0	0	0	511	494	0	494	38	6	
6	0	0	0	0	505	495	0	484	38	6	
7	0	0	0	0	507	494	0	476	38	6	
8	0	0	0	0	510	495	0	465	38	6	
9	0	0	0	0	507	497	0	460	38	6	
10	0	0	0	0	503	500	0	459	38	6	
11	0	0	0	0	509	501	0	455	38	6	
12	0	0	0	0	507	501	0	458	38	6	
13	0	0	0	0	514	500	0	457	38	6	
14	0	0	0	0	507	498	0	455	38	6	
15	0	0	0	0	512	500	0	454	38	6	
0	0	0	0	0	512	498	0	448	38	6	
1	0	0	0	0	502	499	0	445	38	6	
2	0	0	0	0	507	502	0	443	38	6	
3	0	0	0	0	512	502	0	443	38	6	
4	0	0	0	0	510	504	0	447	38	6	
5	0	0	0	0	511	505	0	448	38	6	
6	0	0	0	0	506	504	0	451	38	6	
7	0	0	0	0	501	503	0	449	38	6	
8	0	0	0	0	500	500	0	451	38	6	
9	0	0	0	0	508	500	0	448	38	6	
10	0	0	0	0	511	499	0	450	38	6	
11	0	0	0	0	510	502	0	449	38	6	
12	0	0	0	0	506	505	0	455	38	6	
13	0	0	0	0	510	507	0	472	38	6	
14	0	0	0	0	506	508	0	499	38	6	
15	0	0	0	0	512	510	0	505	38	6	
0	0	0	0	0	502	511	0	523	38	6	
1	0	0	0	0	511	509	0	520	38	6	
2	0	0	0	0	507	508	0	526	38	6	
3	0	0	0	0	506	507	0	536	38	6	
4	0	0	0	0	507	505	0	535	38	6	
5	0	0	0	0	505	504	0	543	38	6	
6	0	0	0	0	509	504	0	535	38	6	
7	0	0	0	0	506	504	0	516	38	6	
8	0	0	0	0	507	507	0	498	38	6	
9	0	0	0	0	505	508	0	491	38	6	
10	0	0	0	0	504	511	0	506	38	6	
11	0	0	0	0	508	510	0	510	38	6	
12	0	0	0	0	505	508	0	502	38	6	
13	0	0	0	0	510	509	0	492	38	6	
14	0	0	0	0	509	509	0	483	38	6	
15	0	0	0	0	511	509	0	477	38	6	
0	0	0	0	0	505	509	0	470	38	6	
1	0	0	0	0	511	510	0	496	38	6	
2	0	0	0	0	504	510	0	503	38	6	
3	0	0	0	0	511	508	0	507	38	6	
4	0	0	0	0	498	508	0	497	38	6	
5	0	0	0	0	517	508	0	491	38	6	
6	0	0	0	0	502	507	0	492	38	6	
7	0	0	0	0	512	507	0	490	38	6	
8	0	0	0	0	507	504	0	486	38	6	
9	0	0	0	0	506	500	0	506	38	6	
10	0	0	0	0	505	499	0	508	38	6	
11	0	0	0	0	508	496	0	502	38	6	
12	0	0	0	0	510	495	0	491	38	6	
13	0	0	0	0	518	494	0	483	38	6	
14	0	0	0	0	510	494	0	478	38	6	
15	0	0	0	0	503	494	0	474	38	6	
0	0	0	0	0	513	494	0	472	38	6	
1	0	0	0	0	504	495	0	471	38	6	
2	0	0	0	0	508	496	0	476	38	6	
3	0	0	0	0	511	498	0	500	38	6	
4	0	0	0	0	500	502	0	509	38	6	
5	0	0	0	0	506	501	0	522	38	6	
6	0	0	0	0	503	500	0	532	38	6	
7	0	0	0	0	513	500	0	528	38	6	
8	0	0	0	0	504	500	0	539	38	6	
9	0	0	0	0	516	499	0	536	38	6	
10	0	0	0	0	508	497	0	520	38	6	
11	0	0	0	0	505	499	0	507	38	6	
12	0	0	0	0	508	499	0	497	38	6	
13	0	0	0	0	508	498	0	488	38	6	
14	0	0	0	0	502	498	0	483	38	6	
15	0	0	0	0	509	498	0	478	38	6	
0	0	0	0	0	504	498	0	476	38	6	
1	0	0	0	0	511	498	0	479	38	6	
2	0	0	0	0	511	498	0	504	38	6	
3	0	0	0	0	510	496	0	513	38	6	
4	0	0	0	0	507	499	0	511	38	6	
5	0	0	0	0	507	505	0	505	38	6	
6	0	0	0	0	504	507	0	506	38	6	
7	0	0	0	0	512	511	0	508	38	6	
8	0	0	0	0	511	514	0	505	38	6	
9	0	0	0	0	510	515	0	517	38	6	
10	0	0	0	0	508	517	0	535	38	6	
11	0	0	0	0	506	517	0	532	38	6	
12	0	0	0	0	497	516	0	523	38	6	
13	0	0	0	0	507	516	0	512	38	6	
14	0	0	0	0	504	514	0	501	38	6	
15	0	0	0	0	508	514	0	493	38	6	
0	0	0	0	0	507	514	0	493	38	6	
1	0	0	0	0	510	513	0	510	38	6	
2	0	0	0	0	509	512	0	514	38	6	
3	0	0	0	0	509	510	0	507	38	6	
4	0	0	0	0	508	508	0	499	38	6	
5	0	0	0	0	504	507	0	494	38	6	
6	0	0	0	0	502	508	0	489	38	6	
