# OpenSignals Text File Format. Version 1
# {"98:D3:51:FD:71:01": {"position": 0, "device": "bitalino_rev", "device name": "98:D3:51:FD:71:01", "device connection": "BTH98:D3:51:FD:71:01", "sampling rate": 1000, "resolution": [4, 1, 1, 1, 1, 10, 10, 10, 10, 6, 6], "firmware version": 1282, "comments": "", "keywords": "", "mode": 0, "sync interval": 2, "date": "2024-6-28", "time": "9:3:50.137", "channels": [1, 2, 3, 4, 5, 6], "sensor": ["RAW", "ECGBIT", "RAW", "RAW", "RAW", "RAW"], "label": ["A1", "A2", "A3", "A4", "A5", "A6"], "column": ["nSeq", "I1", "I2", "O1", "O2", "A1", "A2", "A3", "A4", "A5", "A6"], "special": [{}, {}, {}, {}, {}, {}], "digital IO": [0, 0, 1, 1]}}
# EndOfHeader
0	0	0	0	0	507	491	0	479	38	6	
1	0	0	0	0	505	491	0	481	39	6	
2	0	0	0	0	511	491	0	480	38	6	
3	0	0	0	0	511	492	0	478	38	6	
4	0	0	0	0	502	493	0	475	38	6	
5	0	0	0	0	505	497	0	472	38	6	
6	0	0	0	0	510	500	0	468	39	6	
7	0	0	0	0	503	501	0	470	38	6	
8	0	0	0	0	510	500	0	481	38	6	
9	0	0	0	0	511	503	0	483	39	6	
10	0	0	0	0	508	503	0	482	38	6	
11	0	0	0	0	502	502	0	478	38	6	
12	0	0	0	0	509	502	0	479	39	6	
13	0	0	0	0	504	503	0	472	38	6	
14	0	0	0	0	517	503	0	469	38	6	
15	0	0	0	0	508	500	0	465	38	6	
0	0	0	0	0	505	497	0	471	38	6	
1	0	0	0	0	505	494	0	491	39	6	
2	0	0	0	0	503	492	0	496	38	6	
3	0	0	0	0	508	492	0	492	38	6	
4	0	0	0	0	507	490	0	487	38	6	
5	0	0	0	0	508	488	0	480	38	6	
6	0	0	0	0	510	490	0	475	38	6	
7	0	0	0	0	509	494	0	471	38	6	
8	0	0	0	0	511	498	0	467	38	6	
9	0	0	0	0	509	503	0	468	39	6	
10	0	0	0	0	504	504	0	472	38	6	
11	0	0	0	0	500	503	0	497	38	6	
12	0	0	0	0	503	506	0	503	38	6	
13	0	0	0	0	504	510	0	498	38	6	
14	0	0	0	0	511	509	0	507	38	6	
15	0	0	0	0	506	506	0	515	38	6	
0	0	0	0	0	510	506	0	510	38	6	
1	0	0	0	0	515	508	0	497	39	6	
2	0	0	0	0	511	508	0	494	38	6	
3	0	0	0	0	510	507	0	488	38	6	
4	0	0	0	0	503	508	0	480	38	6	
5	0	0	0	0	505	512	0	475	38	6	
6	0	0	0	0	510	520	0	470	38	6	
7	0	0	0	0	507	524	0	465	38	6	
8	0	0	0	0	507	529	0	461	38	6	
9	0	0	0	0	508	531	0	466	38	6	
10	0	0	0	0	510	533	0	489	38	6	
11	0	0	0	0	511	535	0	507	38	6	
12	0	0	0	0	502	535	0	493	38	6	
13	0	0	0	0	504	536	0	487	38	6	
14	0	0	0	0	511	539	0	479	38	6	
15	0	0	0	0	509	547	0	477	38	6	
0	0	0	0	0	511	553	0	491	38	6	
1	0	0	0	0	503	556	0	497	38	6	
2	0	0	0	0	508	568	0	493	38	6	
3	0	0	0	0	508	584	0	484	38	6	
4	0	0	0	0	501	601	0	477	38	6	
5	0	0	0	0	512	614	0	470	38	6	
6	0	0	0	0	507	623	0	465	38	6	
7	0	0	0	0	512	631	0	462	38	6	
8	0	0	0	0	505	637	0	459	38	6	
9	0	0	0	0	508	643	0	452	38	6	
10	0	0	0	0	506	646	0	475	38	6	
11	0	0	0	0	509	648	0	484	38	6	
12	0	0	0	0	506	649	0	482	38	6	
13	0	0	0	0	504	648	0	476	38	6	
14	0	0	0	0	508	645	0	471	38	6	
15	0	0	0	0	506	642	0	467	38	6	
0	0	0	0	0	510	636	0	477	38	6	
1	0	0	0	0	505	628	0	489	39	6	
2	0	0	0	0	502	617	0	486	39	6	
3	0	0	0	0	513	607	0	482	38	6	
4	0	0	0	0	503	597	0	482	38	6	
5	0	0	0	0	503	588	0	483	38	6	
6	0	0	0	0	514	577	0	468	38	6	
7	0	0	0	0	504	564	0	463	38	6	
8	0	0	0	0	511	552	0	455	39	6	
9	0	0	0	0	505	546	0	452	39	6	
10	0	0	0	0	505	540	0	448	38	6	
11	0	0	0	0	503	530	0	458	38	6	
12	0	0	0	0	505	519	0	480	38	6	
13	0	0	0	0	510	507	0	484	38	6	
14	0	0	0	0	504	496	0	480	38	6	
15	0	0	0	0	501	481	0	492	38	6	
0	0	0	0	0	515	467	0	498	38	6	
1	0	0	0	0	510	455	0	487	39	6	
2	0	0	0	0	508	447	0	476	38	6	
3	0	0	0	0	509	443	0	464	38	6	
4	0	0	0	0	512	440	0	456	38	6	
5	0	0	0	0	505	440	0	451	38	6	
6	0	0	0	0	504	440	0	448	38	6	
7	0	0	0	0	509	440	0	450	38	6	
8	0	0	0	0	509	441	0	469	38	6	
9	0	0	0	0	507	440	0	478	39	6	
10	0	0	0	0	509	439	0	479	38	6	
11	0	0	0	0	506	436	0	469	38	6	
12	0	0	0	0	510	434	0	465	38	6	
13	0	0	0	0	512	432	0	457	38	6	
14	0	0	0	0	501	430	0	449	38	6	
15	0	0	0	0	505	432	0	446	38	6	
0	0	0	0	0	502	434	0	441	38	6	
1	0	0	0	0	504	437	0	444	39	6	
2	0	0	0	0	505	441	0	465	38	6	
3	0	0	0	0	512	447	0	478	38	6	
4	0	0	0	0	509	451	0	476	38	6	
5	0	0	0	0	507	455	0	480	38	6	
6	0	0	0	0	515	465	0	480	38	6	
7	0	0	0	0	505	473	0	472	38	6	
8	0	0	0	0	511	475	0	482	38	6	
9	0	0	0	0	517	475	0	495	38	6	
10	0	0	0	0	506	478	0	493	38	6	
11	0	0	0	0	508	480	0	483	38	6	
12	0	0	0	0	502	481	0	473	38	6	
13	0	0	0	0	508	483	0	465	38	6	
14	0	0	0	0	505	487	0	470	38	6	
15	0	0	0	0	503	490	0	455	38	6	
0	0	0	0	0	502	495	0	452	38	6	
1	0	0	0	0	509	499	0	447	39	6	
2	0	0	0	0	506	502	0	463	38	6	
3	0	0	0	0	510	500	0	482	38	6	
4	0	0	0	0	508	499	0	483	38	6	
5	0	0	0	0	510	503	0	483	38	6	
6	0	0	0	0	500	508	0	498	38	6	
7	0	0	0	0	505	507	0	499	38	6	
8	0	0	0	0	508	504	0	487	38	6	
9	0	0	0	0	512	497	0	478	39	6	
10	0	0	0	0	508	491	0	471	38	6	
11	0	0	0	0	510	490	0	467	38	6	
12	0	0	0	0	504	491	0	459	38	6	
13	0	0	0	0	499	492	0	457	38	6	
14	0	0	0	0	504	496	0	452	38	6	
15	0	0	0	0	502	502	0	454	38	6	
0	0	0	0	0	506	508	0	450	38	6	
1	0	0	0	0	502	509	0	448	39	6	
2	0	0	0	0	512	507	0	445	38	6	
3	0	0	0	0	509	509	0	445	38	6	
4	0	0	0	0	511	510	0	449	38	6	
5	0	0	0	0	509	509	0	471	38	6	
6	0	0	0	0	506	507	0	487	38	6	
7	0	0	0	0	501	507	0	498	38	6	
8	0	0	0	0	508	504	0	508	38	6	
9	0	0	0	0	504	505	0	503	38	6	
10	0	0	0	0	508	507	0	500	38	6	
11	0	0	0	0	512	506	0	489	38	6	
12	0	0	0	0	511	507	0	480	38	6	
13	0	0	0	0	508	507	0	472	38	6	
14	0	0	0	0	504	507	0	468	38	6	
15	0	0	0	0	499	509	0	464	38	6	
0	0	0	0	0	506	511	0	464	38	6	
1	0	0	0	0	509	511	0	459	39	6	
2	0	0	0	0	512	508	0	460	38	6	
3	0	0	0	0	501	508	0	460	38	6	
4	0	0	0	0	506	513	0	460	38	6	
5	0	0	0	0	509	515	0	460	38	6	
6	0	0	0	0	512	514	0	460	38	6	
7	0	0	0	0	512	513	0	469	38	6	
8	0	0	0	0	507	513	0	493	38	6	
9	0	0	0	0	509	515	0	500	39	6	
10	0	0	0	0	513	513	0	514	38	6	
11	0	0	0	0	508	513	0	526	38	6	
12	0	0	0	0	504	518	0	519	38	6	
13	0	0	0	0	500	521	0	507	38	6	
14	0	0	0	0	508	517	0	494	38	6	
15	0	0	0	0	511	511	0	484	38	6	
0	0	0	0	0	500	505	0	487	38	6	
1	0	0	0	0	504	502	0	500	38	6	
2	0	0	0	0	508	504	0	499	38	6	
3	0	0	0	0	511	505	0	495	38	6	
4	0	0	0	0	507	504	0	496	38	6	
5	0	0	0	0	509	504	0	493	38	6	
6	0	0	0	0	511	508	0	486	38	6	
7	0	0	0	0	511	511	0	480	38	6	
8	0	0	0	0	512	512	0	476	38	6	
9	0	0	0	0	510	512	0	472	38	6	
10	0	0	0	0	505	511	0	471	38	6	
11	0	0	0	0	507	508	0	476	38	6	
12	0	0	0	0	507	505	0	503	38	6	
13	0	0	0	0	508	500	0	512	38	6	
14	0	0	0	0	512	498	0	508	38	6	
15	0	0	0	0	511	503	0	512	38	6	
0	0	0	0	0	499	508	0	524	38	6	
1	0	0	0	0	497	508	0	515	38	6	
2	0	0	0	0	504	508	0	502	38	6	
3	0	0	0	0	508	507	0	491	38	6	
4	0	0	0	0	511	512	0	482	38	6	
5	0	0	0	0	509	516	0	478	39	6	
6	0	0	0	0	501	516	0	474	38	6	
7	0	0	0	0	508	512	0	471	38	6	
8	0	0	0	0	503	508	0	467	38	6	
9	0	0	0	0	511	508	0	478	38	6	
10	0	0	0	0	497	508	0	504	39	6	
11	0	0	0	0	512	509	0	509	38	6	
12	0	0	0	0	512	510	0	502	38	6	
13	0	0	0	0	519	510	0	495	38	6	
14	0	0	0	0	504	511	0	485	38	6	
15	0	0	0	0	509	511	0	490	38	6	
0	0	0	0	0	502	513	0	504	38	6	
1	0	0	0	0	511	513	0	504	39	6	
2	0	0	0	0	507	510	0	497	38	6	
3	0	0	0	0	504	508	0	499	38	6	
4	0	0	0	0	508	506	0	496	38	6	
5	0	0	0	0	506	509	0	491	38	6	
6	0	0	0	0	515	511	0	487	38	6	
7	0	0	0	0	510	512	0	481	38	6	
8	0	0	0	0	510	512	0	479	38	6	
9	0	0	0	0	509	513	0	476	39	6	
10	0	0	0	0	507	513	0	478	38	6	
11	0	0	0	0	501	513	0	503	38	6	
12	0	0	0	0	505	510	0	524	38	6	
13	0	0	0	0	509	508	0	510	38	6	
14	0	0	0	0	508	508	0	513	38	6	
15	0	0	0	0	502	509	0	529	38	6	
0	0	0	0	0	509	510	0	527	38	6	
1	0	0	0	0	510	510	0	515	38	6	
2	0	0	0	0	504	509	0	514	38	6	
3	0	0	0	0	509	518	0	508	38	6	
4	0	0	0	0	505	526	0	500	38	6	
5	0	0	0	0	509	531	0	493	38	6	
6	0	0	0	0	512	532	0	486	39	6	
7	0	0	0	0	507	529	0	482	38	6	
8	0	0	0	0	506	524	0	478	39	6	
9	0	0	0	0	505	520	0	481	38	6	
10	0	0	0	0	510	517	0	504	38	6	
11	0	0	0	0	508	513	0	516	38	6	
12	0	0	0	0	506	511	0	514	38	6	
13	0	0	0	0	499	511	0	522	38	6	
14	0	0	0	0	507	509	0	499	38	6	
15	0	0	0	0	506	510	0	496	38	6	
0	0	0	0	0	507	512	0	487	39	6	
1	0	0	0	0	504	513	0	498	39	6	
2	0	0	0	0	498	514	0	520	38	6	
3	0	0	0	0	509	516	0	524	38	6	
4	0	0	0	0	512	518	0	519	38	6	
5	0	0	0	0	508	521	0	509	38	6	
6	0	0	0	0	506	520	0	499	38	6	
7	0	0	0	0	511	517	0	500	38	6	
8	0	0	0	0	513	515	0	514	38	6	
9	0	0	0	0	502	517	0	512	39	6	
10	0	0	0	0	508	518	0	504	38	6	
11	0	0	0	0	512	516	0	497	38	6	
12	0	0	0	0	504	514	0	496	38	6	
13	0	0	0	0	510	521	0	486	38	6	
14	0	0	0	0	504	527	0	494	38	6	
15	0	0	0	0	513	524	0	480	38	6	
0	0	0	0	0	514	523	0	482	38	6	
1	0	0	0	0	500	521	0	484	38	6	
2	0	0	0	0	506	521	0	508	38	6	
3	0	0	0	0	508	523	0	514	38	6	
4	0	0	0	0	510	525	0	510	38	6	
5	0	0	0	0	505	528	0	513	38	6	
6	0	0	0	0	507	530	0	508	38	6	
7	0	0	0	0	510	531	0	505	38	6	
8	0	0	0	0	506	530	0	520	38	6	
9	0	0	0	0	507	528	0	531	39	6	
10	0	0	0	0	510	523	0	524	38	6	
11	0	0	0	0	505	517	0	517	38	6	
12	0	0	0	0	505	517	0	504	38	6	
13	0	0	0	0	501	522	0	494	38	6	
14	0	0	0	0	505	524	0	487	38	6	
15	0	0	0	0	505	524	0	484	38	6	
0	0	0	0	0	503	526	0	479	38	6	
1	0	0	0	0	500	525	0	480	38	6	
2	0	0	0	0	507	523	0	504	38	6	
3	0	0	0	0	511	522	0	515	38	6	
4	0	0	0	0	507	524	0	513	38	6	
5	0	0	0	0	502	527	0	507	38	6	
6	0	0	0	0	514	526	0	502	38	6	
7	0	0	0	0	517	527	0	495	38	6	
8	0	0	0	0	513	529	0	508	38	6	
9	0	0	0	0	512	529	0	519	38	6	
10	0	0	0	0	504	533	0	518	38	6	
11	0	0	0	0	502	536	0	512	38	6	
12	0	0	0	0	508	536	0	503	38	6	
13	0	0	0	0	511	536	0	496	38	6	
14	0	0	0	0	510	534	0	490	38	6	
15	0	0	0	0	513	534	0	487	38	6	
0	0	0	0	0	505	533	0	484	38	6	
1	0	0	0	0	510	530	0	478	39	6	
2	0	0	0	0	505	528	0	493	39	6	
3	0	0	0	0	505	533	0	512	38	6	
4	0	0	0	0	499	540	0	512	38	6	
5	0	0	0	0	501	539	0	512	38	6	
6	0	0	0	0	507	539	0	527	38	6	
7	0	0	0	0	515	540	0	531	38	6	
8	0	0	0	0	504	540	0	521	38	6	
9	0	0	0	0	508	537	0	509	39	6	
10	0	0	0	0	502	536	0	499	38	6	
11	0	0	0	0	508	534	0	489	38	6	
12	0	0	0	0	508	531	0	486	38	6	
13	0	0	0	0	508	533	0	480	38	6	
14	0	0	0	0	508	531	0	477	38	6	
15	0	0	0	0	507	530	0	474	39	6	
0	0	0	0	0	509	531	0	473	38	6	
1	0	0	0	0	513	536	0	470	39	6	
2	0	0	0	0	502	543	0	470	38	6	
3	0	0	0	0	513	545	0	469	38	6	
4	0	0	0	0	507	545	0	472	38	6	
5	0	0	0	0	509	545	0	498	38	6	
6	0	0	0	0	500	545	0	512	38	6	
7	0	0	0	0	509	542	0	541	38	6	
8	0	0	0	0	507	540	0	535	38	6	
9	0	0	0	0	515	540	0	526	39	6	
10	0	0	0	0	508	540	0	510	38	6	
11	0	0	0	0	513	542	0	498	38	6	
12	0	0	0	0	503	547	0	488	38	6	
13	0	0	0	0	506	552	0	482	38	6	
14	0	0	0	0	502	554	0	480	39	6	
15	0	0	0	0	508	554	0	479	38	6	
0	0	0	0	0	503	552	0	497	38	6	
1	0	0	0	0	508	549	0	511	39	6	
2	0	0	0	0	508	547	0	512	38	6	
3	0	0	0	0	504	546	0	510	38	6	
4	0	0	0	0	504	542	0	512	38	6	
5	0	0	0	0	511	536	0	504	38	6	
6	0	0	0	0	504	538	0	496	38	6	
7	0	0	0	0	510	540	0	490	38	6	
8	0	0	0	0	511	540	0	491	38	6	
9	0	0	0	0	503	542	0	481	39	6	
10	0	0	0	0	512	543	0	479	38	6	
11	0	0	0	0	507	542	0	489	39	6	
12	0	0	0	0	508	539	0	512	38	6	
13	0	0	0	0	508	538	0	512	38	6	
14	0	0	0	0	509	538	0	507	38	6	
15	0	0	0	0	508	537	0	517	38	6	
0	0	0	0	0	510	534	0	522	38	6	
1	0	0	0	0	505	528	0	513	39	6	
2	0	0	0	0	506	524	0	504	38	6	
3	0	0	0	0	501	520	0	494	38	6	
4	0	0	0	0	508	517	0	486	38	6	
5	0	0	0	0	508	518	0	485	38	6	
6	0	0	0	0	504	516	0	481	38	6	
7	0	0	0	0	503	517	0	480	38	6	
8	0	0	0	0	505	516	0	478	38	6	
9	0	0	0	0	509	513	0	495	38	6	
10	0	0	0	0	514	511	0	516	38	6	
11	0	0	0	0	507	509	0	519	38	6	
12	0	0	0	0	506	508	0	515	38	6	
13	0	0	0	0	515	506	0	504	38	6	
14	0	0	0	0	510	503	0	496	38	6	
15	0	0	0	0	510	499	0	505	38	6	
0	0	0	0	0	507	496	0	519	38	6	
1	0	0	0	0	508	496	0	515	38	6	
2	0	0	0	0	505	498	0	510	38	6	
3	0	0	0	0	511	498	0	514	38	6	
4	0	0	0	0	505	495	0	507	38	6	
5	0	0	0	0	506	494	0	503	38	6	
6	0	0	0	0	502	496	0	499	38	6	
7	0	0	0	0	507	496	0	496	38	6	
8	0	0	0	0	504	495	0	491	38	6	
9	0	0	0	0	507	491	0	489	38	6	
10	0	0	0	0	503	487	0	496	38	6	
11	0	0	0	0	516	483	0	521	38	6	
12	0	0	0	0	508	479	0	531	38	6	
13	0	0	0	0	515	477	0	526	38	6	
14	0	0	0	0	508	475	0	518	38	6	
15	0	0	0	0	505	473	0	508	38	6	
0	0	0	0	0	504	472	0	505	38	6	
1	0	0	0	0	512	470	0	522	38	6	
2	0	0	0	0	506	472	0	531	38	6	
3	0	0	0	0	509	474	0	524	38	6	
4	0	0	0	0	512	474	0	517	38	6	
5	0	0	0	0	499	473	0	511	38	6	
6	0	0	0	0	510	472	0	505	38	6	
7	0	0	0	0	508	474	0	500	38	6	
8	0	0	0	0	511	473	0	509	38	6	
9	0	0	0	0	507	471	0	524	39	6	
10	0	0	0	0	504	468	0	526	38	6	
11	0	0	0	0	507	465	0	522	38	6	
12	0	0	0	0	510	465	0	515	38	6	
13	0	0	0	0	506	465	0	511	38	6	
14	0	0	0	0	513	462	0	506	38	6	
15	0	0	0	0	510	460	0	521	38	6	
0	0	0	0	0	507	461	0	504	38	6	
1	0	0	0	0	516	462	0	502	38	6	
2	0	0	0	0	507	467	0	513	38	6	
3	0	0	0	0	504	471	0	537	38	6	
4	0	0	0	0	505	472	0	543	38	6	
5	0	0	0	0	510	471	0	539	38	6	
6	0	0	0	0	508	471	0	551	38	6	
7	0	0	0	0	513	471	0	559	38	6	
8	0	0	0	0	505	471	0	552	38	6	
9	0	0	0	0	499	472	0	541	39	6	
10	0	0	0	0	501	470	0	530	38	6	
11	0	0	0	0	509	468	0	518	38	6	
12	0	0	0	0	516	466	0	512	38	6	
13	0	0	0	0	508	463	0	509	38	6	
14	0	0	0	0	508	457	0	507	38	6	
15	0	0	0	0	508	451	0	505	38	6	
0	0	0	0	0	510	444	0	505	38	6	
1	0	0	0	0	512	439	0	503	39	6	
2	0	0	0	0	504	438	0	503	38	6	
3	0	0	0	0	506	440	0	502	39	6	
4	0	0	0	0	510	445	0	515	39	6	
5	0	0	0	0	503	448	0	523	38	6	
6	0	0	0	0	505	448	0	556	38	6	
7	0	0	0	0	515	449	0	554	38	6	
8	0	0	0	0	508	450	0	573	38	6	
9	0	0	0	0	507	449	0	567	39	6	
10	0	0	0	0	511	453	0	555	38	6	
11	0	0	0	0	499	460	0	541	38	6	
12	0	0	0	0	504	464	0	531	39	6	
13	0	0	0	0	504	466	0	524	38	6	
14	0	0	0	0	507	470	0	519	38	6	
15	0	0	0	0	508	472	0	515	38	6	
0	0	0	0	0	511	472	0	511	38	6	
1	0	0	0	0	511	471	0	516	38	6	
2	0	0	0	0	512	470	0	541	38	6	
3	0	0	0	0	510	468	0	550	38	6	
4	0	0	0	0	507	467	0	543	38	6	
5	0	0	0	0	513	467	0	533	38	6	
6	0	0	0	0	506	468	0	523	38	6	
7	0	0	0	0	509	467	0	524	38	6	
8	0	0	0	0	513	467	0	538	38	6	
9	0	0	0	0	507	467	0	552	39	6	
10	0	0	0	0	506	469	0	547	38	6	
11	0	0	0	0	500	471	0	541	38	6	
12	0	0	0	0	500	472	0	531	38	6	
13	0	0	0	0	507	473	0	523	38	6	
14	0	0	0	0	510	475	0	515	38	6	
15	0	0	0	0	512	473	0	511	38	6	
0	0	0	0	0	512	470	0	507	38	6	
1	0	0	0	0	509	468	0	508	39	6	
2	0	0	0	0	503	465	0	531	38	6	
3	0	0	0	0	505	465	0	543	38	6	
4	0	0	0	0	511	467	0	551	38	6	
5	0	0	0	0	507	468	0	547	38	6	
6	0	0	0	0	508	470	0	543	38	6	
7	0	0	0	0	503	475	0	528	38	6	
8	0	0	0	0	510	477	0	540	38	6	
9	0	0	0	0	509	478	0	552	38	6	
10	0	0	0	0	505	477	0	548	39	6	
11	0	0	0	0	504	476	0	542	38	6	
12	0	0	0	0	510	477	0	530	38	6	
13	0	0	0	0	508	475	0	520	38	6	
14	0	0	0	0	507	476	0	514	38	6	
15	0	0	0	0	507	478	0	513	38	6	
0	0	0	0	0	507	481	0	508	38	6	
1	0	0	0	0	513	482	0	507	39	6	
2	0	0	0	0	504	481	0	526	38	6	
3	0	0	0	0	511	481	0	543	38	6	
4	0	0	0	0	503	476	0	544	38	6	
5	0	0	0	0	506	470	0	538	38	6	
6	0	0	0	0	516	467	0	532	38	6	
7	0	0	0	0	511	466	0	521	38	6	
8	0	0	0	0	502	468	0	527	38	6	
9	0	0	0	0	506	470	0	541	39	6	
10	0	0	0	0	505	471	0	539	38	6	
11	0	0	0	0	504	472	0	535	38	6	
12	0	0	0	0	504	474	0	537	38	6	
13	0	0	0	0	503	476	0	543	38	6	
14	0	0	0	0	505	478	0	539	38	6	
15	0	0	0	0	518	481	0	533	38	6	
0	0	0	0	0	509	483	0	522	38	6	
1	0	0	0	0	506	483	0	515	39	6	
2	0	0	0	0	507	482	0	508	38	6	
3	0	0	0	0	504	480	0	502	38	6	
4	0	0	0	0	503	479	0	504	38	6	
5	0	0	0	0	514	480	0	527	38	6	
6	0	0	0	0	513	480	0	542	38	6	
7	0	0	0	0	506	483	0	552	38	6	
8	0	0	0	0	508	485	0	567	38	6	
9	0	0	0	0	508	489	0	561	38	6	
10	0	0	0	0	507	496	0	548	38	6	
11	0	0	0	0	516	501	0	532	38	6	
12	0	0	0	0	499	502	0	522	38	6	
13	0	0	0	0	504	498	0	514	38	6	
14	0	0	0	0	504	488	0	512	38	6	
15	0	0	0	0	507	483	0	505	38	6	
0	0	0	0	0	506	483	0	504	38	6	
1	0	0	0	0	511	483	0	514	38	6	
2	0	0	0	0	505	484	0	538	38	6	
3	0	0	0	0	507	482	0	546	38	6	
4	0	0	0	0	506	476	0	542	38	6	
5	0	0	0	0	513	472	0	553	38	6	
6	0	0	0	0	508	470	0	563	39	6	
7	0	0	0	0	512	474	0	570	38	6	
8	0	0	0	0	508	479	0	575	38	6	
9	0	0	0	0	506	480	0	568	39	6	
10	0	0	0	0	508	481	0	550	38	6	
11	0	0	0	0	508	484	0	544	38	6	
12	0	0	0	0	496	484	0	537	38	6	
13	0	0	0	0	507	482	0	528	38	6	
14	0	0	0	0	508	481	0	520	38	6	
15	0	0	0	0	509	480	0	513	38	6	
0	0	0	0	0	497	479	0	509	38	6	
1	0	0	0	0	500	482	0	504	39	6	
2	0	0	0	0	512	488	0	507	38	6	
3	0	0	0	0	510	491	0	530	38	6	
4	0	0	0	0	513	492	0	540	38	6	
5	0	0	0	0	512	494	0	536	38	6	
6	0	0	0	0	513	492	0	545	38	6	
7	0	0	0	0	503	492	0	552	38	6	
8	0	0	0	0	510	491	0	552	38	6	
9	0	0	0	0	510	490	0	538	39	6	
10	0	0	0	0	504	490	0	529	38	6	
11	0	0	0	0	510	489	0	518	39	6	
12	0	0	0	0	511	485	0	512	39	6	
13	0	0	0	0	506	478	0	505	39	6	
14	0	0	0	0	501	475	0	500	38	6	
15	0	0	0	0	503	474	0	497	38	6	
0	0	0	0	0	514	474	0	503	38	6	
1	0	0	0	0	509	477	0	524	39	6	
2	0	0	0	0	505	480	0	530	38	6	
3	0	0	0	0	513	484	0	526	38	6	
4	0	0	0	0	510	487	0	519	38	6	
5	0	0	0	0	504	489	0	514	39	6	
6	0	0	0	0	507	491	0	509	38	6	
7	0	0	0	0	510	496	0	505	38	6	
8	0	0	0	0	510	503	0	499	39	6	
9	0	0	0	0	510	511	0	498	39	6	
10	0	0	0	0	505	510	0	493	38	6	
11	0	0	0	0	509	499	0	492	38	6	
12	0	0	0	0	512	497	0	493	38	6	
13	0	0	0	0	504	499	0	512	38	6	
14	0	0	0	0	500	500	0	529	38	6	
15	0	0	0	0	501	501	0	535	38	6	
0	0	0	0	0	507	500	0	569	38	6	
1	0	0	0	0	508	497	0	553	39	6	
2	0	0	0	0	511	495	0	557	38	6	
3	0	0	0	0	507	495	0	543	38	6	
4	0	0	0	0	510	499	0	532	38	6	
5	0	0	0	0	507	498	0	520	38	6	
6	0	0	0	0	504	496	0	512	38	6	
7	0	0	0	0	513	490	0	504	38	6	
8	0	0	0	0	515	488	0	502	38	6	
9	0	0	0	0	515	492	0	500	39	6	
10	0	0	0	0	508	494	0	504	38	6	
11	0	0	0	0	509	494	0	529	38	6	
12	0	0	0	0	506	497	0	541	38	6	
13	0	0	0	0	503	500	0	538	38	6	
14	0	0	0	0	507	503	0	539	38	6	
15	0	0	0	0	507	504	0	558	38	6	
0	0	0	0	0	504	508	0	556	38	6	
1	0	0	0	0	507	510	0	545	38	6	
2	0	0	0	0	504	509	0	531	38	6	
3	0	0	0	0	501	507	0	520	38	6	
4	0	0	0	0	504	506	0	512	38	6	
5	0	0	0	0	501	504	0	507	38	6	
6	0	0	0	0	510	500	0	501	38	6	
7	0	0	0	0	506	499	0	498	38	6	
8	0	0	0	0	508	498	0	504	38	6	
9	0	0	0	0	505	499	0	536	38	6	
10	0	0	0	0	516	501	0	534	38	6	
11	0	0	0	0	510	503	0	531	38	6	
12	0	0	0	0	510	504	0	531	38	6	
13	0	0	0	0	510	505	0	529	38	6	
14	0	0	0	0	504	508	0	520	38	6	
15	0	0	0	0	505	507	0	513	39	6	
0	0	0	0	0	509	508	0	505	38	6	
1	0	0	0	0	504	510	0	500	38	6	
2	0	0	0	0	504	510	0	496	38	6	
3	0	0	0	0	511	508	0	495	39	6	
4	0	0	0	0	499	505	0	495	38	6	
5	0	0	0	0	509	504	0	491	38	6	
6	0	0	0	0	510	503	0	491	38	6	
7	0	0	0	0	514	502	0	488	38	6	
8	0	0	0	0	507	506	0	489	38	6	
9	0	0	0	0	511	506	0	485	39	6	
10	0	0	0	0	510	502	0	483	38	6	
11	0	0	0	0	505	499	0	483	38	6	
12	0	0	0	0	506	495	0	484	38	6	
13	0	0	0	0	508	492	0	487	38	6	
14	0	0	0	0	508	491	0	502	38	6	
15	0	0	0	0	509	488	0	485	38	6	
0	0	0	0	0	508	488	0	484	38	6	
1	0	0	0	0	503	489	0	479	39	6	
2	0	0	0	0	509	492	0	484	38	6	
3	0	0	0	0	506	497	0	485	38	6	
4	0	0	0	0	506	500	0	488	38	6	
5	0	0	0	0	504	498	0	504	38	6	
6	0	0	0	0	512	494	0	529	38	6	
7	0	0	0	0	514	492	0	534	38	6	
8	0	0	0	0	509	493	0	523	38	6	
9	0	0	0	0	508	494	0	511	38	6	
10	0	0	0	0	510	493	0	501	38	6	
11	0	0	0	0	506	493	0	497	38	6	
12	0	0	0	0	511	494	0	496	38	6	
13	0	0	0	0	502	496	0	496	38	6	
14	0	0	0	0	508	499	0	494	38	6	
15	0	0	0	0	505	501	0	492	38	6	
0	0	0	0	0	511	503	0	486	38	6	
1	0	0	0	0	508	507	0	488	38	6	
2	0	0	0	0	502	511	0	511	38	6	
3	0	0	0	0	505	513	0	529	38	6	
4	0	0	0	0	506	511	0	543	38	6	
5	0	0	0	0	511	508	0	562	38	6	
6	0	0	0	0	507	504	0	565	38	6	
7	0	0	0	0	515	499	0	575	38	6	
8	0	0	0	0	510	494	0	574	38	6	
9	0	0	0	0	505	492	0	572	39	6	
10	0	0	0	0	510	491	0	578	38	6	
11	0	0	0	0	509	492	0	571	38	6	
12	0	0	0	0	507	493	0	579	38	6	
13	0	0	0	0	510	492	0	579	38	6	
14	0	0	0	0	511	492	0	587	38	6	
15	0	0	0	0	508	494	0	582	38	6	
0	0	0	0	0	508	495	0	571	38	6	
1	0	0	0	0	503	497	0	552	38	6	
2	0	0	0	0	505	499	0	534	38	6	
3	0	0	0	0	505	500	0	519	38	6	
4	0	0	0	0	504	501	0	510	38	6	
5	0	0	0	0	510	503	0	506	38	6	
6	0	0	0	0	508	503	0	502	38	6	
7	0	0	0	0	509	503	0	498	38	6	
8	0	0	0	0	501	503	0	510	38	6	
9	0	0	0	0	507	499	0	527	39	6	
10	0	0	0	0	500	496	0	531	38	6	
11	0	0	0	0	510	496	0	530	39	6	
12	0	0	0	0	510	493	0	532	38	6	
13	0	0	0	0	517	495	0	528	38	6	
14	0	0	0	0	514	500	0	521	38	6	
15	0	0	0	0	508	503	0	517	38	6	
0	0	0	0	0	508	504	0	508	38	6	
1	0	0	0	0	507	504	0	501	38	6	
2	0	0	0	0	501	504	0	497	38	6	
3	0	0	0	0	504	507	0	502	38	6	
4	0	0	0	0	501	508	0	528	38	6	
5	0	0	0	0	506	507	0	539	39	6	
6	0	0	0	0	506	504	0	536	38	6	
7	0	0	0	0	511	504	0	542	38	6	
8	0	0	0	0	514	508	0	553	38	6	
9	0	0	0	0	509	512	0	543	39	6	
10	0	0	0	0	510	515	0	530	38	6	
11	0	0	0	0	507	515	0	518	38	6	
12	0	0	0	0	503	511	0	526	38	6	
13	0	0	0	0	504	503	0	504	39	6	
14	0	0	0	0	510	500	0	507	38	6	
15	0	0	0	0	511	499	0	513	38	6	
0	0	0	0	0	508	500	0	515	38	6	
1	0	0	0	0	509	504	0	525	38	6	
2	0	0	0	0	511	502	0	548	39	6	
3	0	0	0	0	500	499	0	552	39	6	
4	0	0	0	0	506	497	0	544	38	6	
5	0	0	0	0	508	493	0	533	38	6	
6	0	0	0	0	509	494	0	522	38	6	
7	0	0	0	0	504	495	0	515	38	6	
8	0	0	0	0	509	498	0	511	38	6	
9	0	0	0	0	504	507	0	508	39	6	
10	0	0	0	0	505	511	0	504	38	6	
11	0	0	0	0	510	512	0	518	38	6	
12	0	0	0	0	514	513	0	538	38	6	
13	0	0	0	0	512	515	0	542	38	6	
14	0	0	0	0	517	517	0	537	38	6	
15	0	0	0	0	515	517	0	551	38	6	
0	0	0	0	0	506	517	0	557	38	6	
1	0	0	0	0	507	515	0	549	39	6	
2	0	0	0	0	507	514	0	539	38	6	
3	0	0	0	0	509	513	0	528	38	6	
4	0	0	0	0	504	513	0	520	38	6	
5	0	0	0	0	504	515	0	515	38	6	
6	0	0	0	0	499	516	0	511	38	6	
7	0	0	0	0	509	515	0	508	38	6	
8	0	0	0	0	507	511	0	508	38	6	
9	0	0	0	0	505	509	0	524	38	6	
10	0	0	0	0	506	508	0	547	38	6	
11	0	0	0	0	505	509	0	548	38	6	
12	0	0	0	0	513	509	0	544	38	6	
13	0	0	0	0	509	507	0	545	38	6	
14	0	0	0	0	510	506	0	536	38	6	
15	0	0	0	0	510	508	0	540	38	6	
0	0	0	0	0	507	508	0	554	38	6	
1	0	0	0	0	504	505	0	558	38	6	
2	0	0	0	0	502	500	0	540	38	6	
3	0	0	0	0	508	499	0	529	38	6	
4	0	0	0	0	500	503	0	518	39	6	
5	0	0	0	0	505	508	0	513	38	6	
6	0	0	0	0	511	511	0	507	39	6	
7	0	0	0	0	508	508	0	505	38	6	
8	0	0	0	0	512	503	0	500	38	6	
9	0	0	0	0	511	499	0	511	39	6	
10	0	0	0	0	512	497	0	537	38	6	
11	0	0	0	0	507	499	0	543	38	6	
12	0	0	0	0	507	500	0	539	38	6	
13	0	0	0	0	511	501	0	527	39	6	
14	0	0	0	0	499	503	0	519	38	6	
15	0	0	0	0	505	505	0	520	38	6	
0	0	0	0	0	510	507	0	534	38	6	
1	0	0	0	0	509	510	0	533	38	6	
2	0	0	0	0	507	513	0	525	38	6	
3	0	0	0	0	508	516	0	518	38	6	
4	0	0	0	0	506	518	0	514	38	6	
5	0	0	0	0	497	516	0	506	38	6	
6	0	0	0	0	507	516	0	505	38	6	
7	0	0	0	0	512	513	0	500	38	6	
8	0	0	0	0	511	512	0	498	38	6	
9	0	0	0	0	516	511	0	502	39	6	
10	0	0	0	0	512	508	0	526	39	6	
11	0	0	0	0	499	507	0	535	39	6	
12	0	0	0	0	515	508	0	531	38	6	
13	0	0	0	0	500	510	0	536	38	6	
14	0	0	0	0	505	510	0	531	38	6	
15	0	0	0	0	514	510	0	528	38	6	
0	0	0	0	0	504	511	0	546	38	6	
1	0	0	0	0	504	509	0	555	39	6	
2	0	0	0	0	498	507	0	550	38	6	
3	0	0	0	0	510	503	0	553	38	6	
4	0	0	0	0	507	502	0	527	38	6	
5	0	0	0	0	508	505	0	518	38	6	
6	0	0	0	0	501	506	0	508	38	6	
7	0	0	0	0	512	503	0	504	38	6	
8	0	0	0	0	510	503	0	499	38	6	
9	0	0	0	0	508	502	0	500	38	6	
10	0	0	0	0	511	500	0	523	38	6	
11	0	0	0	0	512	499	0	535	38	6	
12	0	0	0	0	508	501	0	546	38	6	
13	0	0	0	0	508	502	0	522	38	6	
14	0	0	0	0	506	498	0	519	38	6	
15	0	0	0	0	505	495	0	531	38	6	
0	0	0	0	0	510	496	0	533	38	6	
1	0	0	0	0	513	499	0	540	38	6	
2	0	0	0	0	507	501	0	558	38	6	
3	0	0	0	0	513	497	0	556	38	6	
4	0	0	0	0	507	490	0	543	38	6	
5	0	0	0	0	507	485	0	529	38	6	
6	0	0	0	0	504	486	0	515	38	6	
7	0	0	0	0	501	489	0	521	38	6	
8	0	0	0	0	508	490	0	533	38	6	
9	0	0	0	0	510	491	0	537	39	6	
10	0	0	0	0	508	494	0	529	38	6	
11	0	0	0	0	509	499	0	531	38	6	
12	0	0	0	0	515	503	0	526	38	6	
13	0	0	0	0	510	506	0	518	38	6	
14	0	0	0	0	514	512	0	512	38	6	
15	0	0	0	0	513	513	0	504	38	6	
0	0	0	0	0	506	515	0	501	38	6	
1	0	0	0	0	501	518	0	496	38	6	
2	0	0	0	0	508	518	0	499	38	6	
3	0	0	0	0	510	516	0	521	38	6	
4	0	0	0	0	508	515	0	533	38	6	
5	0	0	0	0	513	512	0	530	38	6	
6	0	0	0	0	507	511	0	546	38	6	
7	0	0	0	0	499	514	0	545	38	6	
8	0	0	0	0	501	518	0	544	39	6	
9	0	0	0	0	511	521	0	529	38	6	
10	0	0	0	0	502	521	0	518	38	6	
11	0	0	0	0	513	517	0	505	38	6	
12	0	0	0	0	508	509	0	501	38	6	
13	0	0	0	0	511	504	0	494	38	6	
14	0	0	0	0	504	505	0	491	38	6	
15	0	0	0	0	511	505	0	487	38	6	
0	0	0	0	0	507	506	0	493	38	6	
1	0	0	0	0	507	508	0	515	38	6	
2	0	0	0	0	507	511	0	521	38	6	
3	0	0	0	0	510	514	0	519	38	6	
4	0	0	0	0	515	518	0	511	38	6	
5	0	0	0	0	512	516	0	505	39	6	
6	0	0	0	0	497	514	0	500	38	6	
7	0	0	0	0	503	513	0	497	38	6	
8	0	0	0	0	504	512	0	490	38	6	
9	0	0	0	0	509	510	0	487	39	6	
10	0	0	0	0	509	510	0	496	38	6	
11	0	0	0	0	509	509	0	518	38	6	
12	0	0	0	0	504	509	0	527	38	6	
13	0	0	0	0	510	507	0	543	38	6	
14	0	0	0	0	509	504	0	555	38	6	
15	0	0	0	0	502	504	0	550	38	6	
0	0	0	0	0	504	503	0	541	38	6	
1	0	0	0	0	506	504	0	530	39	6	
2	0	0	0	0	512	506	0	513	39	6	
3	0	0	0	0	507	507	0	504	38	6	
4	0	0	0	0	508	508	0	497	38	6	
5	0	0	0	0	500	508	0	494	38	6	
6	0	0	0	0	508	510	0	492	38	6	
7	0	0	0	0	515	510	0	487	39	6	
8	0	0	0	0	500	511	0	486	38	6	
9	0	0	0	0	505	510	0	484	39	6	
10	0	0	0	0	504	510	0	487	38	6	
11	0	0	0	0	510	508	0	486	38	6	
12	0	0	0	0	513	509	0	485	38	6	
13	0	0	0	0	509	510	0	499	38	6	
14	0	0	0	0	510	510	0	520	38	6	
15	0	0	0	0	506	507	0	526	39	6	
0	0	0	0	0	507	504	0	544	38	6	
1	0	0	0	0	506	501	0	551	38	6	
2	0	0	0	0	510	504	0	540	38	6	
3	0	0	0	0	504	504	0	528	38	6	
4	0	0	0	0	508	505	0	517	38	6	
5	0	0	0	0	505	504	0	507	38	6	
6	0	0	0	0	508	502	0	499	38	6	
7	0	0	0	0	508	505	0	495	38	6	
8	0	0	0	0	499	508	0	490	38	6	
9	0	0	0	0	503	510	0	487	39	6	
10	0	0	0	0	505	511	0	511	39	6	
11	0	0	0	0	514	509	0	519	38	6	
12	0	0	0	0	508	507	0	518	38	6	
13	0	0	0	0	500	505	0	510	38	6	
14	0	0	0	0	505	503	0	508	38	6	
15	0	0	0	0	499	499	0	511	38	6	
0	0	0	0	0	504	499	0	508	38	6	
1	0	0	0	0	513	504	0	518	39	6	
2	0	0	0	0	503	507	0	536	38	6	
3	0	0	0	0	509	508	0	539	38	6	
4	0	0	0	0	511	510	0	527	38	6	
5	0	0	0	0	506	511	0	517	38	6	
6	0	0	0	0	508	510	0	504	38	6	
7	0	0	0	0	509	510	0	497	38	6	
8	0	0	0	0	510	510	0	494	38	6	
9	0	0	0	0	512	507	0	511	39	6	
10	0	0	0	0	505	507	0	518	38	6	
11	0	0	0	0	504	505	0	515	38	6	
12	0	0	0	0	505	505	0	511	38	6	
13	0	0	0	0	511	508	0	503	38	6	
14	0	0	0	0	505	511	0	497	38	6	
15	0	0	0	0	514	514	0	491	38	6	
0	0	0	0	0	505	512	0	500	38	6	
1	0	0	0	0	504	510	0	515	39	6	
2	0	0	0	0	504	509	0	519	39	6	
3	0	0	0	0	508	511	0	513	38	6	
4	0	0	0	0	508	511	0	505	38	6	
5	0	0	0	0	506	511	0	500	38	6	
6	0	0	0	0	509	512	0	495	38	6	
7	0	0	0	0	513	514	0	495	38	6	
8	0	0	0	0	513	515	0	491	38	6	
9	0	0	0	0	510	512	0	486	38	6	
10	0	0	0	0	504	510	0	499	38	6	
11	0	0	0	0	509	512	0	523	38	6	
12	0	0	0	0	503	512	0	528	38	6	
13	0	0	0	0	504	513	0	521	38	6	
14	0	0	0	0	507	513	0	512	38	6	
15	0	0	0	0	506	513	0	513	38	6	
0	0	0	0	0	512	511	0	525	38	6	
1	0	0	0	0	510	512	0	526	38	6	
2	0	0	0	0	503	514	0	543	38	6	
3	0	0	0	0	509	516	0	544	38	6	
4	0	0	0	0	507	521	0	544	38	6	
5	0	0	0	0	507	526	0	537	38	6	
6	0	0	0	0	507	526	0	525	38	6	
7	0	0	0	0	505	526	0	515	38	6	
8	0	0	0	0	510	525	0	504	38	6	
9	0	0	0	0	508	524	0	528	39	6	
10	0	0	0	0	495	521	0	534	38	6	
11	0	0	0	0	502	517	0	539	38	6	
12	0	0	0	0	509	515	0	531	38	6	
13	0	0	0	0	511	513	0	522	38	6	
14	0	0	0	0	509	513	0	514	38	6	
15	0	0	0	0	508	511	0	506	39	6	
0	0	0	0	0	515	510	0	502	38	6	
1	0	0	0	0	505	507	0	499	38	6	
2	0	0	0	0	508	507	0	497	38	6	
3	0	0	0	0	506	514	0	508	38	6	
4	0	0	0	0	510	519	0	529	38	6	
5	0	0	0	0	508	520	0	533	38	6	
6	0	0	0	0	512	519	0	526	38	6	
7	0	0	0	0	500	519	0	536	38	6	
8	0	0	0	0	507	520	0	539	38	6	
9	0	0	0	0	506	523	0	543	38	6	
10	0	0	0	0	509	531	0	552	38	6	
11	0	0	0	0	510	535	0	552	38	6	
12	0	0	0	0	510	535	0	540	38	6	
13	0	0	0	0	506	536	0	537	38	6	
14	0	0	0	0	508	534	0	529	38	6	
15	0	0	0	0	513	534	0	523	39	6	
0	0	0	0	0	504	531	0	536	38	6	
1	0	0	0	0	513	528	0	545	38	6	
2	0	0	0	0	504	526	0	538	38	6	
3	0	0	0	0	508	526	0	526	38	6	
4	0	0	0	0	496	524	0	515	38	6	
5	0	0	0	0	504	519	0	507	38	6	
6	0	0	0	0	511	516	0	502	38	6	
7	0	0	0	0	506	515	0	497	38	6	
8	0	0	0	0	513	515	0	496	38	6	
9	0	0	0	0	515	516	0	495	39	6	
10	0	0	0	0	508	515	0	520	38	6	
11	0	0	0	0	512	513	0	529	39	6	
12	0	0	0	0	509	513	0	526	38	6	
13	0	0	0	0	501	517	0	517	38	6	
14	0	0	0	0	510	519	0	510	38	6	
15	0	0	0	0	514	520	0	501	38	6	
0	0	0	0	0	504	516	0	492	38	6	
1	0	0	0	0	511	512	0	487	38	6	
2	0	0	0	0	517	506	0	483	38	6	
3	0	0	0	0	505	502	0	493	38	6	
4	0	0	0	0	506	499	0	513	38	6	
5	0	0	0	0	504	499	0	526	38	6	
6	0	0	0	0	508	500	0	538	38	6	
7	0	0	0	0	501	500	0	553	38	6	
8	0	0	0	0	511	498	0	554	38	6	
9	0	0	0	0	512	496	0	563	39	6	
10	0	0	0	0	510	496	0	560	38	6	
11	0	0	0	0	507	497	0	546	38	6	
12	0	0	0	0	509	502	0	538	38	6	
13	0	0	0	0	503	505	0	532	39	6	
14	0	0	0	0	510	507	0	523	38	6	
15	0	0	0	0	508	506	0	532	38	6	
0	0	0	0	0	502	506	0	542	38	6	
1	0	0	0	0	503	505	0	539	39	6	
2	0	0	0	0	504	504	0	527	38	6	
3	0	0	0	0	515	503	0	527	38	6	
4	0	0	0	0	512	502	0	505	38	6	
5	0	0	0	0	513	502	0	499	38	6	
6	0	0	0	0	504	502	0	495	38	6	
7	0	0	0	0	505	501	0	494	38	6	
8	0	0	0	0	504	499	0	491	39	6	
9	0	0	0	0	513	497	0	509	38	6	
10	0	0	0	0	508	495	0	531	38	6	
11	0	0	0	0	499	492	0	532	38	6	
12	0	0	0	0	512	489	0	529	38	6	
13	0	0	0	0	497	489	0	516	38	6	
14	0	0	0	0	506	491	0	508	39	6	
15	0	0	0	0	512	492	0	514	38	6	
0	0	0	0	0	505	495	0	527	39	6	
1	0	0	0	0	504	499	0	523	39	6	
2	0	0	0	0	509	500	0	515	38	6	
3	0	0	0	0	510	500	0	504	38	6	
4	0	0	0	0	503	502	0	497	38	6	
5	0	0	0	0	503	501	0	492	38	6	
6	0	0	0	0	508	498	0	490	38	6	
7	0	0	0	0	509	497	0	488	38	6	
8	0	0	0	0	510	494	0	485	38	6	
9	0	0	0	0	504	490	0	487	38	6	
10	0	0	0	0	506	489	0	484	38	6	
11	0	0	0	0	506	489	0	488	38	6	
12	0	0	0	0	507	492	0	486	38	6	
13	0	0	0	0	510	495	0	487	38	6	
14	0	0	0	0	511	497	0	501	38	6	
15	0	0	0	0	506	498	0	524	38	6	
0	0	0	0	0	510	497	0	532	38	6	
1	0	0	0	0	513	498	0	551	38	6	
2	0	0	0	0	511	499	0	555	38	6	
3	0	0	0	0	510	497	0	552	38	6	
4	0	0	0	0	510	495	0	558	39	6	
5	0	0	0	0	508	491	0	529	39	6	
6	0	0	0	0	504	487	0	515	38	6	
7	0	0	0	0	508	486	0	504	38	6	
8	0	0	0	0	510	487	0	496	38	6	
9	0	0	0	0	503	488	0	498	39	6	
10	0	0	0	0	510	493	0	522	39	6	
11	0	0	0	0	508	497	0	531	38	6	
12	0	0	0	0	508	499	0	524	38	6	
13	0	0	0	0	507	498	0	518	38	6	
14	0	0	0	0	504	496	0	508	38	6	
15	0	0	0	0	504	497	0	506	38	6	
0	0	0	0	0	509	498	0	521	38	6	
1	0	0	0	0	519	500	0	530	39	6	
2	0	0	0	0	507	502	0	526	38	6	
3	0	0	0	0	505	507	0	518	38	6	
4	0	0	0	0	499	508	0	511	38	6	
5	0	0	0	0	507	505	0	501	38	6	
6	0	0	0	0	504	502	0	498	38	6	
7	0	0	0	0	507	501	0	492	38	6	
8	0	0	0	0	507	503	0	487	38	6	
9	0	0	0	0	511	503	0	488	39	6	
10	0	0	0	0	516	502	0	511	38	6	
11	0	0	0	0	510	503	0	523	38	6	
12	0	0	0	0	508	505	0	519	38	6	
13	0	0	0	0	502	504	0	521	38	6	
14	0	0	0	0	503	502	0	519	38	6	
15	0	0	0	0	511	501	0	514	38	6	
0	0	0	0	0	501	504	0	523	39	6	
1	0	0	0	0	505	507	0	536	38	6	
2	0	0	0	0	505	509	0	531	38	6	
3	0	0	0	0	513	512	0	523	38	6	
4	0	0	0	0	508	515	0	513	39	6	
5	0	0	0	0	513	516	0	501	38	6	
6	0	0	0	0	513	516	0	507	38	6	
7	0	0	0	0	506	517	0	491	38	6	
8	0	0	0	0	506	512	0	488	39	6	
9	0	0	0	0	506	512	0	483	39	6	
10	0	0	0	0	510	514	0	500	38	6	
11	0	0	0	0	504	514	0	520	38	6	
12	0	0	0	0	503	514	0	523	38	6	
13	0	0	0	0	504	512	0	528	39	6	
14	0	0	0	0	499	510	0	540	38	6	
15	0	0	0	0	511	514	0	541	38	6	
0	0	0	0	0	504	516	0	529	38	6	
1	0	0	0	0	504	518	0	516	39	6	
2	0	0	0	0	502	522	0	508	38	6	
3	0	0	0	0	511	527	0	502	38	6	
4	0	0	0	0	508	532	0	512	38	6	
5	0	0	0	0	510	536	0	492	38	6	
6	0	0	0	0	507	540	0	490	38	6	
7	0	0	0	0	506	543	0	488	38	6	
8	0	0	0	0	504	547	0	486	38	6	
9	0	0	0	0	513	552	0	482	38	6	
10	0	0	0	0	513	561	0	479	38	6	
11	0	0	0	0	513	570	0	482	38	6	
12	0	0	0	0	510	580	0	481	38	6	
13	0	0	0	0	515	589	0	505	38	6	
14	0	0	0	0	507	599	0	519	38	6	
15	0	0	0	0	508	611	0	530	38	6	
0	0	0	0	0	509	623	0	543	38	6	
1	0	0	0	0	504	631	0	539	38	6	
2	0	0	0	0	499	638	0	552	38	6	
3	0	0	0	0	508	644	0	525	38	6	
4	0	0	0	0	508	649	0	513	38	6	
5	0	0	0	0	504	652	0	501	38	6	
6	0	0	0	0	508	652	0	494	38	6	
7	0	0	0	0	511	648	0	492	38	6	
8	0	0	0	0	514	640	0	485	38	6	
9	0	0	0	0	508	632	0	481	38	6	
10	0	0	0	0	507	622	0	479	38	6	
11	0	0	0	0	509	610	0	480	38	6	
12	0	0	0	0	508	599	0	480	38	6	
13	0	0	0	0	516	591	0	478	38	6	
14	0	0	0	0	511	581	0	478	38	6	
15	0	0	0	0	502	572	0	485	38	6	
0	0	0	0	0	502	564	0	511	38	6	
1	0	0	0	0	499	553	0	518	39	6	
2	0	0	0	0	509	546	0	536	38	6	
3	0	0	0	0	508	541	0	551	38	6	
4	0	0	0	0	511	533	0	543	38	6	
5	0	0	0	0	507	521	0	534	38	6	
6	0	0	0	0	507	508	0	519	38	6	
7	0	0	0	0	510	495	0	509	38	6	
8	0	0	0	0	516	479	0	513	38	6	
9	0	0	0	0	507	463	0	525	38	6	
10	0	0	0	0	504	454	0	525	38	6	
11	0	0	0	0	505	449	0	519	38	6	
12	0	0	0	0	504	443	0	522	38	6	
13	0	0	0	0	510	437	0	514	38	6	
14	0	0	0	0	505	432	0	507	38	6	
15	0	0	0	0	514	430	0	501	39	6	
0	0	0	0	0	508	427	0	496	39	6	
1	0	0	0	0	507	425	0	513	39	6	
2	0	0	0	0	501	425	0	531	38	6	
3	0	0	0	0	508	426	0	534	39	6	
4	0	0	0	0	509	423	0	525	38	6	
5	0	0	0	0	507	423	0	518	38	6	
6	0	0	0	0	509	421	0	506	38	6	
7	0	0	0	0	509	421	0	500	38	6	
8	0	0	0	0	509	421	0	498	39	6	
9	0	0	0	0	510	423	0	496	39	6	
10	0	0	0	0	510	427	0	494	38	6	
11	0	0	0	0	504	435	0	513	38	6	
12	0	0	0	0	508	444	0	529	38	6	
13	0	0	0	0	514	451	0	530	38	6	
14	0	0	0	0	507	459	0	529	38	6	
15	0	0	0	0	510	470	0	543	38	6	
0	0	0	0	0	510	477	0	550	38	6	
1	0	0	0	0	504	480	0	541	39	6	
2	0	0	0	0	501	480	0	531	38	6	
3	0	0	0	0	502	486	0	519	39	6	
4	0	0	0	0	511	492	0	510	38	6	
5	0	0	0	0	508	495	0	504	38	6	
6	0	0	0	0	508	495	0	499	38	6	
7	0	0	0	0	507	495	0	498	38	6	
8	0	0	0	0	509	498	0	502	38	6	
9	0	0	0	0	508	502	0	523	38	6	
10	0	0	0	0	511	505	0	532	38	6	
11	0	0	0	0	508	507	0	530	38	6	
12	0	0	0	0	507	511	0	531	38	6	
13	0	0	0	0	507	512	0	529	38	6	
14	0	0	0	0	506	513	0	525	38	6	
15	0	0	0	0	506	513	0	536	38	6	
0	0	0	0	0	515	515	0	547	38	6	
1	0	0	0	0	508	514	0	540	38	6	
2	0	0	0	0	511	512	0	532	38	6	
3	0	0	0	0	503	511	0	516	38	6	
4	0	0	0	0	500	509	0	509	38	6	
5	0	0	0	0	501	507	0	499	38	6	
6	0	0	0	0	501	505	0	510	38	6	
7	0	0	0	0	504	506	0	492	38	6	
8	0	0	0	0	505	509	0	490	38	6	
9	0	0	0	0	515	512	0	488	39	6	
10	0	0	0	0	512	512	0	488	38	6	
11	0	0	0	0	508	511	0	486	38	6	
12	0	0	0	0	504	507	0	487	38	6	
13	0	0	0	0	511	506	0	491	38	6	
14	0	0	0	0	514	504	0	508	38	6	
15	0	0	0	0	512	499	0	528	38	6	
0	0	0	0	0	504	497	0	534	38	6	
1	0	0	0	0	504	496	0	555	39	6	
2	0	0	0	0	509	495	0	551	38	6	
3	0	0	0	0	508	498	0	542	38	6	
4	0	0	0	0	501	503	0	526	38	6	
5	0	0	0	0	511	502	0	516	38	6	
6	0	0	0	0	507	499	0	508	38	6	
7	0	0	0	0	508	499	0	502	38	6	
8	0	0	0	0	509	501	0	496	38	6	
9	0	0	0	0	514	504	0	492	38	6	
10	0	0	0	0	512	503	0	499	38	6	
11	0	0	0	0	501	501	0	522	38	6	
12	0	0	0	0	508	503	0	531	38	6	
13	0	0	0	0	506	502	0	545	38	6	
14	0	0	0	0	508	503	0	555	38	6	
15	0	0	0	0	516	503	0	551	38	6	
0	0	0	0	0	507	504	0	543	38	6	
1	0	0	0	0	507	505	0	530	39	6	
2	0	0	0	0	504	506	0	515	38	6	
3	0	0	0	0	509	507	0	507	38	6	
4	0	0	0	0	505	506	0	498	38	6	
5	0	0	0	0	512	506	0	494	38	6	
6	0	0	0	0	507	502	0	490	38	6	
7	0	0	0	0	512	497	0	487	38	6	
8	0	0	0	0	507	493	0	487	38	6	
9	0	0	0	0	508	497	0	487	39	6	
10	0	0	0	0	504	500	0	489	38	6	
11	0	0	0	0	506	501	0	487	38	6	
12	0	0	0	0	505	497	0	490	38	6	
13	0	0	0	0	507	500	0	504	38	6	
14	0	0	0	0	510	504	0	526	38	6	
15	0	0	0	0	512	508	0	531	39	6	
0	0	0	0	0	511	509	0	549	39	6	
1	0	0	0	0	508	509	0	554	39	6	
2	0	0	0	0	508	510	0	545	38	6	
3	0	0	0	0	502	512	0	534	38	6	
4	0	0	0	0	503	511	0	520	38	6	
5	0	0	0	0	496	512	0	512	38	6	
6	0	0	0	0	506	515	0	504	38	6	
7	0	0	0	0	504	515	0	501	38	6	
8	0	0	0	0	507	517	0	497	38	6	
9	0	0	0	0	513	519	0	499	39	6	
10	0	0	0	0	512	519	0	524	38	6	
11	0	0	0	0	505	517	0	534	38	6	
12	0	0	0	0	511	515	0	532	38	6	
13	0	0	0	0	507	516	0	524	39	6	
14	0	0	0	0	511	518	0	519	38	6	
15	0	0	0	0	515	518	0	519	38	6	
0	0	0	0	0	509	514	0	515	38	6	
1	0	0	0	0	510	510	0	522	38	6	
2	0	0	0	0	512	507	0	542	38	6	
3	0	0	0	0	502	504	0	544	38	6	
4	0	0	0	0	505	505	0	534	38	6	
5	0	0	0	0	500	505	0	524	38	6	
6	0	0	0	0	504	505	0	511	38	6	
7	0	0	0	0	509	506	0	504	38	6	
8	0	0	0	0	511	505	0	500	38	6	
9	0	0	0	0	508	500	0	518	38	6	
10	0	0	0	0	505	497	0	526	38	6	
11	0	0	0	0	511	499	0	521	38	6	
12	0	0	0	0	510	503	0	515	38	6	
13	0	0	0	0	506	508	0	507	38	6	
14	0	0	0	0	506	517	0	503	38	6	
15	0	0	0	0	512	521	0	495	38	6	
0	0	0	0	0	499	519	0	504	38	6	
1	0	0	0	0	505	514	0	519	39	6	
2	0	0	0	0	508	512	0	520	38	6	
3	0	0	0	0	508	510	0	515	38	6	
4	0	0	0	0	506	508	0	507	38	6	
5	0	0	0	0	507	508	0	501	38	6	
6	0	0	0	0	506	508	0	498	38	6	
7	0	0	0	0	507	508	0	496	38	6	
8	0	0	0	0	510	507	0	493	38	6	
9	0	0	0	0	504	506	0	492	39	6	
10	0	0	0	0	507	509	0	502	38	6	
11	0	0	0	0	505	512	0	526	38	6	
12	0	0	0	0	508	513	0	532	38	6	
13	0	0	0	0	516	513	0	527	38	6	
14	0	0	0	0	512	515	0	515	38	6	
15	0	0	0	0	508	519	0	505	38	6	
0	0	0	0	0	509	524	0	495	39	6	
1	0	0	0	0	511	527	0	489	38	6	
2	0	0	0	0	513	526	0	510	38	6	
3	0	0	0	0	508	523	0	522	38	6	
4	0	0	0	0	508	519	0	522	38	6	
5	0	0	0	0	504	516	0	518	38	6	
6	0	0	0	0	512	519	0	512	38	6	
7	0	0	0	0	504	520	0	509	38	6	
8	0	0	0	0	510	521	0	502	38	6	
9	0	0	0	0	499	521	0	502	38	6	
10	0	0	0	0	509	520	0	494	38	6	
11	0	0	0	0	505	520	0	507	38	6	
12	0	0	0	0	512	521	0	519	38	6	
13	0	0	0	0	499	524	0	531	38	6	
14	0	0	0	0	509	524	0	542	38	6	
15	0	0	0	0	505	524	0	556	38	6	
0	0	0	0	0	505	526	0	548	38	6	
1	0	0	0	0	505	527	0	534	39	6	
2	0	0	0	0	512	525	0	518	38	6	
3	0	0	0	0	507	521	0	506	38	6	
4	0	0	0	0	509	516	0	499	38	6	
5	0	0	0	0	509	512	0	492	38	6	
6	0	0	0	0	504	512	0	490	38	6	
7	0	0	0	0	514	513	0	483	38	6	
8	0	0	0	0	504	518	0	501	38	6	
9	0	0	0	0	512	526	0	510	39	6	
10	0	0	0	0	509	530	0	514	38	6	
11	0	0	0	0	505	528	0	509	38	6	
12	0	0	0	0	505	523	0	513	38	6	
13	0	0	0	0	510	517	0	508	38	6	
14	0	0	0	0	503	512	0	503	38	6	
15	0	0	0	0	504	509	0	497	38	6	
0	0	0	0	0	513	515	0	493	38	6	
1	0	0	0	0	513	519	0	489	38	6	
2	0	0	0	0	504	525	0	488	38	6	
3	0	0	0	0	507	531	0	494	38	6	
4	0	0	0	0	507	535	0	521	38	6	
5	0	0	0	0	513	536	0	533	38	6	
6	0	0	0	0	498	537	0	528	38	6	
7	0	0	0	0	503	538	0	534	38	6	
8	0	0	0	0	499	540	0	543	38	6	
9	0	0	0	0	512	542	0	534	38	6	
10	0	0	0	0	505	542	0	521	38	6	
11	0	0	0	0	515	534	0	510	38	6	
12	0	0	0	0	506	528	0	501	38	6	
13	0	0	0	0	511	527	0	496	38	6	
14	0	0	0	0	506	526	0	493	38	6	
15	0	0	0	0	511	525	0	495	38	6	
0	0	0	0	0	517	526	0	508	38	6	
1	0	0	0	0	505	526	0	507	38	6	
2	0	0	0	0	512	526	0	504	38	6	
3	0	0	0	0	510	530	0	499	38	6	
4	0	0	0	0	510	532	0	508	38	6	
5	0	0	0	0	506	533	0	488	38	6	
6	0	0	0	0	507	532	0	486	38	6	
7	0	0	0	0	506	528	0	483	38	6	
8	0	0	0	0	507	524	0	483	38	6	
9	0	0	0	0	501	524	0	481	39	6	
10	0	0	0	0	511	529	0	480	38	6	
11	0	0	0	0	506	532	0	481	38	6	
12	0	0	0	0	506	533	0	482	38	6	
13	0	0	0	0	507	535	0	483	38	6	
14	0	0	0	0	511	536	0	485	38	6	
15	0	0	0	0	501	533	0	487	38	6	
0	0	0	0	0	505	534	0	483	38	6	
1	0	0	0	0	506	538	0	486	39	6	
2	0	0	0	0	510	539	0	481	38	6	
3	0	0	0	0	508	537	0	483	38	6	
4	0	0	0	0	511	536	0	483	38	6	
5	0	0	0	0	504	535	0	486	38	6	
6	0	0	0	0	507	537	0	488	38	6	
7	0	0	0	0	505	540	0	487	38	6	
8	0	0	0	0	510	542	0	485	38	6	
9	0	0	0	0	511	542	0	503	39	6	
10	0	0	0	0	504	541	0	526	38	6	
11	0	0	0	0	507	541	0	528	38	6	
12	0	0	0	0	507	543	0	523	38	6	
13	0	0	0	0	513	547	0	516	38	6	
14	0	0	0	0	514	547	0	504	38	6	
15	0	0	0	0	508	547	0	509	38	6	
0	0	0	0	0	504	548	0	484	38	6	
1	0	0	0	0	505	549	0	478	38	6	
2	0	0	0	0	511	547	0	477	38	6	
3	0	0	0	0	510	544	0	497	38	6	
4	0	0	0	0	510	541	0	516	38	6	
5	0	0	0	0	508	536	0	528	38	6	
6	0	0	0	0	505	533	0	551	38	6	
7	0	0	0	0	502	532	0	550	38	6	
8	0	0	0	0	503	534	0	569	38	6	
9	0	0	0	0	507	534	0	563	39	6	
10	0	0	0	0	502	535	0	561	38	6	
11	0	0	0	0	506	536	0	570	38	6	
12	0	0	0	0	507	537	0	561	38	6	
13	0	0	0	0	509	539	0	563	38	6	
14	0	0	0	0	514	542	0	566	38	6	
15	0	0	0	0	511	545	0	565	38	6	
0	0	0	0	0	516	548	0	568	38	6	
1	0	0	0	0	514	549	0	558	39	6	
2	0	0	0	0	500	546	0	551	39	6	
3	0	0	0	0	505	544	0	538	38	6	
4	0	0	0	0	506	543	0	524	38	6	
5	0	0	0	0	506	536	0	509	39	6	
6	0	0	0	0	510	531	0	499	38	6	
7	0	0	0	0	509	528	0	491	38	6	
8	0	0	0	0	505	528	0	487	38	6	
9	0	0	0	0	503	529	0	483	39	6	
10	0	0	0	0	506	528	0	487	39	6	
11	0	0	0	0	511	528	0	513	39	6	
12	0	0	0	0	507	531	0	524	38	6	
13	0	0	0	0	507	530	0	537	38	6	
14	0	0	0	0	505	527	0	525	38	6	
15	0	0	0	0	510	523	0	543	38	6	
0	0	0	0	0	512	520	0	541	38	6	
1	0	0	0	0	505	518	0	531	38	6	
2	0	0	0	0	510	514	0	519	38	6	
3	0	0	0	0	515	513	0	509	38	6	
4	0	0	0	0	505	512	0	507	39	6	
5	0	0	0	0	507	512	0	499	38	6	
6	0	0	0	0	506	513	0	496	39	6	
7	0	0	0	0	511	514	0	493	38	6	
8	0	0	0	0	503	510	0	499	38	6	
9	0	0	0	0	511	508	0	519	39	6	
10	0	0	0	0	509	508	0	526	38	6	
11	0	0	0	0	510	508	0	522	38	6	
12	0	0	0	0	509	509	0	527	38	6	
13	0	0	0	0	508	509	0	526	38	6	
14	0	0	0	0	510	510	0	518	38	6	
15	0	0	0	0	505	507	0	513	38	6	
0	0	0	0	0	508	502	0	504	38	6	
1	0	0	0	0	506	498	0	514	38	6	
2	0	0	0	0	508	493	0	533	38	6	
3	0	0	0	0	507	487	0	537	38	6	
4	0	0	0	0	504	484	0	531	38	6	
5	0	0	0	0	509	485	0	520	38	6	
6	0	0	0	0	511	486	0	513	38	6	
7	0	0	0	0	515	483	0	506	38	6	
8	0	0	0	0	512	482	0	503	38	6	
9	0	0	0	0	504	481	0	499	39	6	
10	0	0	0	0	505	480	0	496	38	6	
11	0	0	0	0	506	475	0	510	38	6	
12	0	0	0	0	504	467	0	532	39	6	
13	0	0	0	0	499	462	0	553	38	6	
14	0	0	0	0	504	462	0	528	38	6	
15	0	0	0	0	510	465	0	515	38	6	
0	0	0	0	0	509	467	0	515	38	6	
1	0	0	0	0	507	469	0	528	38	6	
2	0	0	0	0	502	467	0	535	38	6	
3	0	0	0	0	511	464	0	548	38	6	
4	0	0	0	0	508	460	0	553	38	6	
5	0	0	0	0	507	459	0	543	38	6	
6	0	0	0	0	515	461	0	537	39	6	
7	0	0	0	0	506	462	0	549	38	6	
8	0	0	0	0	514	463	0	545	38	6	
9	0	0	0	0	508	464	0	532	38	6	
10	0	0	0	0	502	463	0	529	38	6	
11	0	0	0	0	509	463	0	523	38	6	
12	0	0	0	0	509	464	0	516	38	6	
13	0	0	0	0	508	463	0	511	38	6	
14	0	0	0	0	507	462	0	502	38	6	
15	0	0	0	0	513	464	0	499	38	6	
0	0	0	0	0	509	467	0	496	38	6	
1	0	0	0	0	503	464	0	498	38	6	
2	0	0	0	0	503	464	0	521	38	6	
3	0	0	0	0	507	466	0	535	38	6	
4	0	0	0	0	509	467	0	535	38	6	
5	0	0	0	0	512	470	0	525	38	6	
6	0	0	0	0	507	471	0	518	38	6	
7	0	0	0	0	510	474	0	512	39	6	
8	0	0	0	0	508	475	0	525	38	6	
9	0	0	0	0	507	473	0	537	38	6	
10	0	0	0	0	509	470	0	537	38	6	
11	0	0	0	0	507	465	0	531	38	6	
12	0	0	0	0	508	460	0	521	38	6	
13	0	0	0	0	508	457	0	512	38	6	
14	0	0	0	0	504	457	0	506	38	6	
15	0	0	0	0	507	459	0	504	38	6	
0	0	0	0	0	507	460	0	501	38	6	
1	0	0	0	0	505	460	0	498	39	6	
2	0	0	0	0	510	461	0	515	38	6	
3	0	0	0	0	511	460	0	533	38	6	
4	0	0	0	0	509	457	0	535	38	6	
5	0	0	0	0	508	459	0	532	38	6	
6	0	0	0	0	503	462	0	550	38	6	
7	0	0	0	0	512	464	0	548	38	6	
8	0	0	0	0	503	465	0	537	38	6	
9	0	0	0	0	510	463	0	533	39	6	
10	0	0	0	0	511	464	0	531	38	6	
11	0	0	0	0	510	466	0	523	38	6	
12	0	0	0	0	502	468	0	515	38	6	
13	0	0	0	0	508	471	0	507	38	6	
14	0	0	0	0	506	470	0	504	38	6	
15	0	0	0	0	511	471	0	503	38	6	
0	0	0	0	0	504	471	0	498	38	6	
1	0	0	0	0	509	468	0	497	39	6	
2	0	0	0	0	511	468	0	493	38	6	
3	0	0	0	0	507	467	0	491	38	6	
4	0	0	0	0	511	467	0	490	38	6	
5	0	0	0	0	508	468	0	491	38	6	
6	0	0	0	0	511	467	0	510	38	6	
7	0	0	0	0	503	460	0	531	38	6	
8	0	0	0	0	504	456	0	538	39	6	
9	0	0	0	0	510	460	0	555	39	6	
10	0	0	0	0	510	464	0	555	39	6	
11	0	0	0	0	510	466	0	541	38	6	
12	0	0	0	0	505	469	0	532	38	6	
13	0	0	0	0	504	469	0	512	38	6	
14	0	0	0	0	513	472	0	504	38	6	
15	0	0	0	0	505	475	0	497	38	6	
0	0	0	0	0	510	476	0	494	38	6	
1	0	0	0	0	504	478	0	492	38	6	
2	0	0	0	0	510	477	0	497	38	6	
3	0	0	0	0	505	475	0	525	38	6	
4	0	0	0	0	508	472	0	528	38	6	
5	0	0	0	0	512	472	0	527	38	6	
6	0	0	0	0	512	474	0	509	38	6	
7	0	0	0	0	503	475	0	504	38	6	
8	0	0	0	0	508	475	0	520	38	6	
9	0	0	0	0	510	476	0	522	39	6	
10	0	0	0	0	506	479	0	514	38	6	
11	0	0	0	0	509	480	0	505	38	6	
12	0	0	0	0	513	478	0	506	38	6	
13	0	0	0	0	506	476	0	507	38	6	
14	0	0	0	0	511	478	0	505	38	6	
15	0	0	0	0	505	483	0	496	38	6	
0	0	0	0	0	501	487	0	505	38	6	
1	0	0	0	0	503	486	0	498	38	6	
2	0	0	0	0	507	485	0	523	38	6	
3	0	0	0	0	504	486	0	528	38	6	
4	0	0	0	0	509	484	0	523	38	6	
5	0	0	0	0	513	481	0	516	38	6	
6	0	0	0	0	503	478	0	504	38	6	
7	0	0	0	0	508	475	0	499	38	6	
8	0	0	0	0	513	478	0	494	38	6	
9	0	0	0	0	502	480	0	509	39	6	
10	0	0	0	0	511	479	0	527	38	6	
11	0	0	0	0	506	477	0	527	38	6	
12	0	0	0	0	505	479	0	521	38	6	
13	0	0	0	0	507	481	0	508	38	6	
14	0	0	0	0	509	483	0	499	38	6	
15	0	0	0	0	502	486	0	505	38	6	
0	0	0	0	0	499	487	0	517	38	6	
1	0	0	0	0	507	489	0	513	38	6	
2	0	0	0	0	508	494	0	505	38	6	
3	0	0	0	0	506	495	0	498	38	6	
4	0	0	0	0	507	495	0	491	38	6	
5	0	0	0	0	502	491	0	491	38	6	
6	0	0	0	0	509	486	0	486	38	6	
7	0	0	0	0	512	483	0	485	38	6	
8	0	0	0	0	507	480	0	481	38	6	
9	0	0	0	0	513	478	0	493	38	6	
10	0	0	0	0	511	479	0	516	39	6	
11	0	0	0	0	513	480	0	523	38	6	
12	0	0	0	0	509	483	0	518	38	6	
13	0	0	0	0	505	486	0	519	38	6	
14	0	0	0	0	507	491	0	513	38	6	
15	0	0	0	0	505	492	0	513	39	6	
0	0	0	0	0	508	491	0	533	38	6	
1	0	0	0	0	510	489	0	532	38	6	
2	0	0	0	0	509	484	0	522	38	6	
3	0	0	0	0	505	481	0	510	38	6	
4	0	0	0	0	502	481	0	501	38	6	
5	0	0	0	0	504	481	0	493	38	6	
6	0	0	0	0	507	482	0	490	38	6	
7	0	0	0	0	506	483	0	485	38	6	
8	0	0	0	0	507	483	0	483	38	6	
9	0	0	0	0	511	482	0	491	38	6	
10	0	0	0	0	509	479	0	514	38	6	
11	0	0	0	0	506	479	0	525	38	6	
12	0	0	0	0	503	480	0	518	38	6	
13	0	0	0	0	512	481	0	510	38	6	
14	0	0	0	0	504	481	0	503	38	6	
15	0	0	0	0	511	480	0	502	38	6	
0	0	0	0	0	510	481	0	518	38	6	
1	0	0	0	0	505	486	0	526	38	6	
2	0	0	0	0	505	492	0	523	38	6	
3	0	0	0	0	509	496	0	514	39	6	
4	0	0	0	0	511	496	0	507	38	6	
5	0	0	0	0	504	493	0	500	38	6	
6	0	0	0	0	509	485	0	494	38	6	
7	0	0	0	0	509	487	0	489	38	6	
8	0	0	0	0	506	492	0	486	38	6	
9	0	0	0	0	512	498	0	485	39	6	
10	0	0	0	0	501	502	0	506	38	6	
11	0	0	0	0	508	502	0	521	38	6	
12	0	0	0	0	509	504	0	516	38	6	
13	0	0	0	0	512	503	0	518	38	6	
14	0	0	0	0	513	499	0	518	38	6	
15	0	0	0	0	503	498	0	511	38	6	
0	0	0	0	0	515	497	0	521	39	6	
1	0	0	0	0	502	496	0	534	39	6	
2	0	0	0	0	505	495	0	533	38	6	
3	0	0	0	0	504	495	0	521	38	6	
4	0	0	0	0	509	491	0	512	38	6	
5	0	0	0	0	510	486	0	500	39	6	
6	0	0	0	0	511	483	0	496	38	6	
7	0	0	0	0	507	483	0	487	38	6	
8	0	0	0	0	504	485	0	484	38	6	
9	0	0	0	0	509	490	0	479	39	6	
10	0	0	0	0	508	496	0	495	38	6	
11	0	0	0	0	503	500	0	512	38	6	
12	0	0	0	0	515	503	0	514	38	6	
13	0	0	0	0	511	507	0	515	38	6	
14	0	0	0	0	510	508	0	528	38	6	
15	0	0	0	0	509	504	0	531	38	6	
0	0	0	0	0	502	499	0	519	38	6	
1	0	0	0	0	502	496	0	509	38	6	
2	0	0	0	0	501	494	0	500	38	6	
3	0	0	0	0	508	496	0	493	38	6	
4	0	0	0	0	509	498	0	488	38	6	
5	0	0	0	0	507	501	0	485	38	6	
6	0	0	0	0	508	502	0	484	38	6	
7	0	0	0	0	509	499	0	484	38	6	
8	0	0	0	0	512	494	0	483	38	6	
9	0	0	0	0	512	488	0	480	38	6	
10	0	0	0	0	501	484	0	480	38	6	
11	0	0	0	0	509	483	0	477	38	6	
12	0	0	0	0	512	487	0	484	38	6	
13	0	0	0	0	511	492	0	511	38	6	
14	0	0	0	0	507	496	0	524	38	6	
15	0	0	0	0	510	498	0	536	38	6	
0	0	0	0	0	502	502	0	547	38	6	
1	0	0	0	0	495	500	0	544	38	6	
2	0	0	0	0	511	499	0	541	38	6	
3	0	0	0	0	506	495	0	531	38	6	
4	0	0	0	0	499	492	0	522	38	6	
5	0	0	0	0	512	494	0	511	39	6	
6	0	0	0	0	518	495	0	505	38	6	
7	0	0	0	0	507	495	0	500	38	6	
8	0	0	0	0	503	494	0	497	38	6	
9	0	0	0	0	509	491	0	495	38	6	
10	0	0	0	0	514	487	0	494	38	6	
11	0	0	0	0	513	485	0	497	39	6	
12	0	0	0	0	505	489	0	493	38	6	
13	0	0	0	0	511	492	0	491	38	6	
14	0	0	0	0	511	491	0	489	38	6	
15	0	0	0	0	507	495	0	497	38	6	
0	0	0	0	0	495	500	0	519	38	6	
1	0	0	0	0	510	502	0	527	39	6	
2	0	0	0	0	507	500	0	545	38	6	
3	0	0	0	0	503	497	0	558	38	6	
4	0	0	0	0	499	495	0	555	38	6	
5	0	0	0	0	517	494	0	540	38	6	
6	0	0	0	0	507	493	0	528	38	6	
7	0	0	0	0	507	493	0	516	38	6	
8	0	0	0	0	504	494	0	521	38	6	
9	0	0	0	0	510	495	0	534	38	6	
10	0	0	0	0	516	496	0	535	38	6	
11	0	0	0	0	509	499	0	531	38	6	
12	0	0	0	0	501	504	0	531	38	6	
13	0	0	0	0	505	507	0	529	38	6	
14	0	0	0	0	506	508	0	520	39	6	
15	0	0	0	0	510	507	0	515	38	6	
0	0	0	0	0	510	506	0	511	38	6	
1	0	0	0	0	508	506	0	526	39	6	
2	0	0	0	0	508	506	0	543	38	6	
3	0	0	0	0	512	505	0	544	38	6	
4	0	0	0	0	511	502	0	536	38	6	
5	0	0	0	0	493	499	0	527	38	6	
6	0	0	0	0	506	499	0	519	38	6	
7	0	0	0	0	507	499	0	512	38	6	
8	0	0	0	0	503	498	0	509	38	6	
9	0	0	0	0	504	495	0	505	38	6	
10	0	0	0	0	514	491	0	504	38	6	
11	0	0	0	0	512	487	0	522	38	6	
12	0	0	0	0	500	483	0	538	38	6	
13	0	0	0	0	515	481	0	540	38	6	
14	0	0	0	0	511	482	0	537	38	6	
15	0	0	0	0	506	485	0	552	38	6	
0	0	0	0	0	507	486	0	556	38	6	
1	0	0	0	0	510	487	0	545	38	6	
2	0	0	0	0	505	488	0	533	38	6	
3	0	0	0	0	510	487	0	525	38	6	
4	0	0	0	0	504	489	0	516	38	6	
5	0	0	0	0	504	488	0	510	38	6	
6	0	0	0	0	509	489	0	508	38	6	
7	0	0	0	0	505	489	0	504	38	6	
8	0	0	0	0	502	491	0	517	38	6	
9	0	0	0	0	504	495	0	528	38	6	
10	0	0	0	0	517	499	0	541	38	6	
11	0	0	0	0	511	499	0	539	38	6	
12	0	0	0	0	509	495	0	539	38	6	
13	0	0	0	0	506	493	0	538	38	6	
14	0	0	0	0	507	494	0	531	38	6	
15	0	0	0	0	505	494	0	544	38	6	
0	0	0	0	0	512	495	0	553	38	6	
1	0	0	0	0	505	497	0	550	39	6	
2	0	0	0	0	512	499	0	539	38	6	
3	0	0	0	0	514	498	0	530	38	6	
4	0	0	0	0	504	496	0	516	38	6	
5	0	0	0	0	505	497	0	510	38	6	
6	0	0	0	0	502	500	0	506	38	6	
7	0	0	0	0	506	505	0	505	38	6	
8	0	0	0	0	510	504	0	503	38	6	
9	0	0	0	0	509	506	0	519	39	6	
10	0	0	0	0	511	506	0	543	38	6	
11	0	0	0	0	505	505	0	541	38	6	
12	0	0	0	0	506	504	0	533	38	6	
13	0	0	0	0	510	502	0	522	38	6	
14	0	0	0	0	505	499	0	512	38	6	
15	0	0	0	0	510	499	0	519	38	6	
0	0	0	0	0	511	498	0	529	38	6	
1	0	0	0	0	513	497	0	528	38	6	
2	0	0	0	0	512	498	0	516	38	6	
3	0	0	0	0	504	499	0	509	38	6	
4	0	0	0	0	506	498	0	502	38	6	
5	0	0	0	0	503	499	0	498	38	6	
6	0	0	0	0	501	502	0	495	38	6	
7	0	0	0	0	502	502	0	492	38	6	
8	0	0	0	0	502	502	0	491	38	6	
9	0	0	0	0	510	501	0	500	39	6	
10	0	0	0	0	508	500	0	525	38	6	
11	0	0	0	0	511	499	0	531	38	6	
12	0	0	0	0	512	499	0	526	38	6	
13	0	0	0	0	502	498	0	526	38	6	
14	0	0	0	0	513	497	0	518	38	6	
15	0	0	0	0	503	496	0	516	38	6	
0	0	0	0	0	510	496	0	532	38	6	
1	0	0	0	0	515	499	0	535	39	6	
2	0	0	0	0	508	502	0	524	38	6	
3	0	0	0	0	499	503	0	520	38	6	
4	0	0	0	0	503	502	0	507	38	6	
5	0	0	0	0	507	501	0	502	38	6	
6	0	0	0	0	508	499	0	496	38	6	
7	0	0	0	0	509	499	0	492	38	6	
8	0	0	0	0	506	501	0	487	38	6	
9	0	0	0	0	510	502	0	491	38	6	
10	0	0	0	0	505	503	0	520	38	6	
11	0	0	0	0	508	502	0	527	38	6	
12	0	0	0	0	510	501	0	523	38	6	
13	0	0	0	0	512	502	0	516	38	6	
14	0	0	0	0	511	499	0	508	38	6	
15	0	0	0	0	507	494	0	506	38	6	
0	0	0	0	0	507	493	0	520	38	6	
1	0	0	0	0	501	499	0	528	38	6	
2	0	0	0	0	507	502	0	524	38	6	
3	0	0	0	0	513	500	0	518	38	6	
4	0	0	0	0	510	498	0	508	39	6	
5	0	0	0	0	505	496	0	504	39	6	
6	0	0	0	0	507	495	0	495	38	6	
7	0	0	0	0	512	496	0	492	38	6	
8	0	0	0	0	508	496	0	487	38	6	
9	0	0	0	0	511	496	0	486	38	6	
10	0	0	0	0	514	496	0	508	38	6	
11	0	0	0	0	507	499	0	519	38	6	
12	0	0	0	0	504	502	0	517	39	6	
13	0	0	0	0	509	504	0	516	38	6	
14	0	0	0	0	507	503	0	516	38	6	
15	0	0	0	0	512	504	0	507	38	6	
0	0	0	0	0	502	505	0	518	38	6	
1	0	0	0	0	505	503	0	531	38	6	
2	0	0	0	0	509	497	0	529	38	6	
3	0	0	0	0	510	496	0	520	38	6	
4	0	0	0	0	505	497	0	508	38	6	
5	0	0	0	0	509	495	0	500	38	6	
6	0	0	0	0	512	497	0	493	38	6	
7	0	0	0	0	502	498	0	488	38	6	
8	0	0	0	0	500	498	0	485	38	6	
9	0	0	0	0	509	500	0	479	39	6	
10	0	0	0	0	505	505	0	495	38	6	
11	0	0	0	0	506	508	0	513	38	6	
12	0	0	0	0	513	509	0	518	38	6	
13	0	0	0	0	507	508	0	508	38	6	
14	0	0	0	0	512	507	0	502	38	6	
15	0	0	0	0	509	506	0	492	38	6	
0	0	0	0	0	505	507	0	500	38	6	
1	0	0	0	0	499	508	0	516	39	6	
2	0	0	0	0	509	507	0	513	38	6	
3	0	0	0	0	511	507	0	507	38	6	
4	0	0	0	0	507	510	0	497	38	6	
5	0	0	0	0	512	511	0	490	38	6	
6	0	0	0	0	514	512	0	484	38	6	
7	0	0	0	0	506	513	0	482	38	6	
8	0	0	0	0	506	512	0	479	38	6	
9	0	0	0	0	514	510	0	475	38	6	
10	0	0	0	0	502	512	0	487	38	6	
11	0	0	0	0	503	513	0	510	38	6	
12	0	0	0	0	506	509	0	516	38	6	
13	0	0	0	0	504	506	0	512	38	6	
14	0	0	0	0	509	507	0	522	38	6	
15	0	0	0	0	509	509	0	527	38	6	
0	0	0	0	0	509	510	0	523	38	6	
1	0	0	0	0	509	512	0	519	39	6	
2	0	0	0	0	504	513	0	510	38	6	
3	0	0	0	0	504	512	0	499	38	6	
4	0	0	0	0	508	512	0	493	38	6	
5	0	0	0	0	507	511	0	487	38	6	
6	0	0	0	0	507	511	0	487	38	6	
7	0	0	0	0	507	510	0	482	38	6	
8	0	0	0	0	504	507	0	477	38	6	
9	0	0	0	0	513	503	0	476	38	6	
10	0	0	0	0	497	503	0	474	38	6	
11	0	0	0	0	505	505	0	473	39	6	
12	0	0	0	0	508	506	0	471	38	6	
13	0	0	0	0	513	505	0	469	38	6	
14	0	0	0	0	514	505	0	484	38	6	
15	0	0	0	0	512	506	0	510	38	6	
0	0	0	0	0	507	505	0	515	38	6	
1	0	0	0	0	504	502	0	535	39	6	
2	0	0	0	0	508	500	0	540	38	6	
3	0	0	0	0	504	500	0	530	38	6	
4	0	0	0	0	509	500	0	516	38	6	
5	0	0	0	0	507	498	0	506	38	6	
6	0	0	0	0	505	497	0	499	38	6	
7	0	0	0	0	510	496	0	489	38	6	
8	0	0	0	0	510	497	0	496	38	6	
9	0	0	0	0	506	497	0	509	39	6	
10	0	0	0	0	503	495	0	511	38	6	
11	0	0	0	0	510	494	0	505	38	6	
12	0	0	0	0	510	495	0	499	38	6	
13	0	0	0	0	508	497	0	504	38	6	
14	0	0	0	0	502	499	0	501	38	6	
15	0	0	0	0	504	502	0	498	38	6	
0	0	0	0	0	504	504	0	493	38	6	
1	0	0	0	0	508	504	0	488	38	6	
2	0	0	0	0	514	504	0	498	38	6	
3	0	0	0	0	509	505	0	522	38	6	
4	0	0	0	0	517	505	0	528	38	6	
5	0	0	0	0	504	505	0	521	38	6	
6	0	0	0	0	508	508	0	531	38	6	
7	0	0	0	0	504	509	0	537	39	6	
8	0	0	0	0	509	508	0	531	38	6	
9	0	0	0	0	509	507	0	519	38	6	
10	0	0	0	0	510	507	0	507	38	6	
11	0	0	0	0	503	505	0	498	38	6	
12	0	0	0	0	505	504	0	491	38	6	
13	0	0	0	0	508	502	0	489	38	6	
14	0	0	0	0	515	501	0	484	38	6	
15	0	0	0	0	505	503	0	482	38	6	
0	0	0	0	0	505	504	0	478	38	6	
1	0	0	0	0	508	500	0	478	39	6	
2	0	0	0	0	511	499	0	486	38	6	
3	0	0	0	0	511	505	0	515	38	6	
4	0	0	0	0	505	508	0	529	38	6	
5	0	0	0	0	505	510	0	544	38	6	
6	0	0	0	0	514	508	0	551	38	6	
7	0	0	0	0	506	507	0	537	38	6	
8	0	0	0	0	507	506	0	525	38	6	
9	0	0	0	0	510	503	0	519	39	6	
10	0	0	0	0	511	504	0	510	38	6	
11	0	0	0	0	503	508	0	512	38	6	
12	0	0	0	0	506	512	0	515	38	6	
13	0	0	0	0	503	513	0	517	39	6	
14	0	0	0	0	505	516	0	510	38	6	
15	0	0	0	0	513	519	0	501	38	6	
0	0	0	0	0	516	515	0	493	38	6	
1	0	0	0	0	509	512	0	488	39	6	
2	0	0	0	0	505	509	0	485	38	6	
3	0	0	0	0	512	508	0	482	38	6	
4	0	0	0	0	511	512	0	500	38	6	
5	0	0	0	0	501	515	0	518	38	6	
6	0	0	0	0	502	515	0	542	38	6	
7	0	0	0	0	513	513	0	544	38	6	
8	0	0	0	0	508	511	0	540	38	6	
9	0	0	0	0	504	509	0	524	38	6	
10	0	0	0	0	506	511	0	512	38	6	
11	0	0	0	0	508	513	0	502	38	6	
12	0	0	0	0	504	516	0	493	38	6	
13	0	0	0	0	504	518	0	491	38	6	
14	0	0	0	0	508	516	0	484	38	6	
15	0	0	0	0	513	512	0	482	38	6	
0	0	0	0	0	510	512	0	488	38	6	
1	0	0	0	0	511	512	0	509	38	6	
2	0	0	0	0	510	510	0	517	38	6	
3	0	0	0	0	509	508	0	513	38	6	
4	0	0	0	0	499	509	0	507	38	6	
5	0	0	0	0	504	507	0	501	38	6	
6	0	0	0	0	508	506	0	498	38	6	
7	0	0	0	0	503	509	0	496	38	6	
8	0	0	0	0	514	511	0	493	38	6	
9	0	0	0	0	510	511	0	493	39	6	
10	0	0	0	0	507	510	0	499	38	6	
11	0	0	0	0	510	507	0	527	38	6	
12	0	0	0	0	513	508	0	534	38	6	
13	0	0	0	0	502	511	0	548	38	6	
14	0	0	0	0	503	513	0	560	38	6	
15	0	0	0	0	507	513	0	557	38	6	
0	0	0	0	0	506	510	0	551	38	6	
1	0	0	0	0	514	511	0	539	38	6	
2	0	0	0	0	510	512	0	528	38	6	
3	0	0	0	0	514	512	0	516	38	6	
4	0	0	0	0	513	510	0	516	38	6	
5	0	0	0	0	507	503	0	504	38	6	
6	0	0	0	0	500	498	0	502	38	6	
7	0	0	0	0	509	494	0	498	38	6	
8	0	0	0	0	504	497	0	497	38	6	
9	0	0	0	0	505	499	0	495	38	6	
10	0	0	0	0	498	500	0	496	38	6	
11	0	0	0	0	513	500	0	496	38	6	
12	0	0	0	0	511	497	0	493	38	6	
13	0	0	0	0	508	496	0	519	38	6	
14	0	0	0	0	502	497	0	530	38	6	
15	0	0	0	0	510	497	0	537	38	6	
0	0	0	0	0	512	499	0	556	38	6	
1	0	0	0	0	501	502	0	561	38	6	
2	0	0	0	0	507	508	0	552	38	6	
3	0	0	0	0	509	509	0	537	38	6	
4	0	0	0	0	512	511	0	525	38	6	
5	0	0	0	0	508	514	0	514	38	6	
6	0	0	0	0	508	514	0	507	38	6	
7	0	0	0	0	507	515	0	503	38	6	
8	0	0	0	0	507	516	0	501	38	6	
9	0	0	0	0	511	513	0	504	38	6	
10	0	0	0	0	507	505	0	524	38	6	
11	0	0	0	0	512	500	0	536	38	6	
12	0	0	0	0	504	500	0	533	38	6	
13	0	0	0	0	508	502	0	534	38	6	
14	0	0	0	0	503	503	0	537	38	6	
15	0	0	0	0	500	503	0	542	38	6	
0	0	0	0	0	504	502	0	536	38	6	
1	0	0	0	0	509	501	0	539	38	6	
2	0	0	0	0	512	500	0	556	38	6	
3	0	0	0	0	514	500	0	555	38	6	
4	0	0	0	0	509	504	0	543	38	6	
5	0	0	0	0	507	507	0	528	38	6	
6	0	0	0	0	507	507	0	519	38	6	
7	0	0	0	0	511	507	0	512	38	6	
8	0	0	0	0	508	508	0	508	38	6	
9	0	0	0	0	509	510	0	527	39	6	
10	0	0	0	0	512	514	0	532	38	6	
11	0	0	0	0	505	518	0	529	38	6	
12	0	0	0	0	510	518	0	522	38	6	
13	0	0	0	0	506	519	0	515	38	6	
14	0	0	0	0	507	516	0	510	38	6	
15	0	0	0	0	508	510	0	503	38	6	
0	0	0	0	0	508	510	0	511	38	6	
1	0	0	0	0	501	510	0	526	39	6	
2	0	0	0	0	511	511	0	527	38	6	
3	0	0	0	0	506	514	0	519	38	6	
4	0	0	0	0	509	516	0	512	38	6	
5	0	0	0	0	510	516	0	506	38	6	
6	0	0	0	0	504	514	0	501	39	6	
7	0	0	0	0	508	511	0	499	38	6	
8	0	0	0	0	505	508	0	495	38	6	
9	0	0	0	0	510	507	0	490	39	6	
10	0	0	0	0	508	508	0	502	38	6	
11	0	0	0	0	501	509	0	526	38	6	
12	0	0	0	0	506	508	0	531	38	6	
13	0	0	0	0	508	504	0	525	38	6	
14	0	0	0	0	511	499	0	514	38	6	
15	0	0	0	0	503	495	0	518	38	6	
0	0	0	0	0	507	493	0	534	38	6	
1	0	0	0	0	504	495	0	531	38	6	
2	0	0	0	0	510	496	0	539	38	6	
3	0	0	0	0	510	498	0	523	38	6	
4	0	0	0	0	511	504	0	516	38	6	
5	0	0	0	0	511	509	0	506	38	6	
6	0	0	0	0	506	511	0	501	38	6	
7	0	0	0	0	508	510	0	497	38	6	
8	0	0	0	0	506	506	0	495	38	6	
9	0	0	0	0	510	502	0	494	38	6	
10	0	0	0	0	509	499	0	493	38	6	
11	0	0	0	0	510	502	0	494	38	6	
12	0	0	0	0	507	510	0	491	38	6	
13	0	0	0	0	507	514	0	488	38	6	
14	0	0	0	0	508	519	0	486	38	6	
15	0	0	0	0	508	521	0	494	38	6	
0	0	0	0	0	500	522	0	516	38	6	
1	0	0	0	0	499	524	0	524	39	6	
2	0	0	0	0	500	519	0	537	38	6	
3	0	0	0	0	508	514	0	551	38	6	
4	0	0	0	0	514	511	0	547	38	6	
5	0	0	0	0	510	510	0	531	39	6	
6	0	0	0	0	510	511	0	520	38	6	
7	0	0	0	0	518	512	0	505	38	6	
8	0	0	0	0	509	513	0	513	38	6	
9	0	0	0	0	505	512	0	523	38	6	
10	0	0	0	0	504	510	0	523	38	6	
11	0	0	0	0	507	509	0	515	38	6	
12	0	0	0	0	505	512	0	505	38	6	
13	0	0	0	0	504	515	0	507	38	6	
14	0	0	0	0	510	518	0	504	38	6	
15	0	0	0	0	505	519	0	503	39	6	
0	0	0	0	0	506	523	0	522	38	6	
1	0	0	0	0	501	527	0	536	39	6	
2	0	0	0	0	512	530	0	542	38	6	
3	0	0	0	0	506	531	0	556	38	6	
4	0	0	0	0	504	532	0	552	38	6	
5	0	0	0	0	509	527	0	547	39	6	
6	0	0	0	0	511	521	0	549	38	6	
7	0	0	0	0	506	520	0	550	38	6	
8	0	0	0	0	516	522	0	536	38	6	
9	0	0	0	0	508	522	0	519	38	6	
10	0	0	0	0	499	520	0	503	38	6	
11	0	0	0	0	510	516	0	491	38	6	
12	0	0	0	0	510	516	0	486	38	6	
13	0	0	0	0	508	517	0	478	38	6	
14	0	0	0	0	512	519	0	478	38	6	
15	0	0	0	0	507	517	0	472	38	6	
0	0	0	0	0	507	516	0	468	38	6	
1	0	0	0	0	505	517	0	468	38	6	
2	0	0	0	0	507	520	0	467	38	6	
3	0	0	0	0	499	523	0	467	38	6	
4	0	0	0	0	508	524	0	467	38	6	
5	0	0	0	0	510	523	0	466	38	6	
6	0	0	0	0	510	523	0	467	38	6	
7	0	0	0	0	508	520	0	468	38	6	
8	0	0	0	0	507	519	0	463	38	6	
9	0	0	0	0	509	518	0	458	38	6	
10	0	0	0	0	510	518	0	455	38	6	
11	0	0	0	0	507	518	0	457	38	6	
12	0	0	0	0	505	518	0	458	38	6	
13	0	0	0	0	509	519	0	463	38	6	
14	0	0	0	0	504	520	0	464	38	6	
15	0	0	0	0	506	519	0	464	38	6	
0	0	0	0	0	507	518	0	464	38	6	
1	0	0	0	0	511	518	0	457	38	6	
2	0	0	0	0	502	517	0	459	38	6	
3	0	0	0	0	506	518	0	459	38	6	
4	0	0	0	0	509	517	0	461	38	6	
5	0	0	0	0	507	516	0	463	38	6	
6	0	0	0	0	511	517	0	464	38	6	
7	0	0	0	0	514	515	0	469	38	6	
8	0	0	0	0	510	517	0	464	38	6	
9	0	0	0	0	509	521	0	466	39	6	
10	0	0	0	0	509	522	0	463	38	6	
11	0	0	0	0	506	519	0	465	38	6	
12	0	0	0	0	515	514	0	468	38	6	
13	0	0	0	0	511	511	0	469	38	6	
14	0	0	0	0	508	511	0	470	38	6	
15	0	0	0	0	506	511	0	486	38	6	
0	0	0	0	0	506	512	0	508	38	6	
1	0	0	0	0	515	515	0	511	39	6	
2	0	0	0	0	511	515	0	529	38	6	
3	0	0	0	0	499	515	0	532	38	6	
4	0	0	0	0	509	515	0	537	38	6	
5	0	0	0	0	510	514	0	547	38	6	
6	0	0	0	0	507	513	0	544	38	6	
7	0	0	0	0	511	513	0	555	38	6	
8	0	0	0	0	504	506	0	553	38	6	
9	0	0	0	0	506	501	0	554	38	6	
10	0	0	0	0	503	498	0	558	38	6	
11	0	0	0	0	505	492	0	557	38	6	
12	0	0	0	0	509	488	0	555	38	6	
13	0	0	0	0	499	484	0	550	38	6	
14	0	0	0	0	507	482	0	548	38	6	
15	0	0	0	0	506	483	0	555	39	6	
0	0	0	0	0	519	485	0	547	38	6	
1	0	0	0	0	506	488	0	553	38	6	
2	0	0	0	0	503	492	0	554	38	6	
3	0	0	0	0	511	492	0	542	38	6	
4	0	0	0	0	503	489	0	530	38	6	
5	0	0	0	0	503	484	0	514	38	6	
6	0	0	0	0	508	479	0	498	38	6	
7	0	0	0	0	512	476	0	487	38	6	
8	0	0	0	0	508	480	0	480	38	6	
9	0	0	0	0	513	484	0	488	39	6	
10	0	0	0	0	517	487	0	508	38	6	
11	0	0	0	0	499	485	0	515	38	6	
12	0	0	0	0	506	484	0	511	38	6	
13	0	0	0	0	512	486	0	503	38	6	
14	0	0	0	0	508	487	0	494	38	6	
15	0	0	0	0	506	487	0	493	38	6	
0	0	0	0	0	504	488	0	510	38	6	
1	0	0	0	0	512	489	0	518	38	6	
2	0	0	0	0	512	495	0	523	38	6	
3	0	0	0	0	509	497	0	507	38	6	
4	0	0	0	0	502	493	0	500	38	6	
5	0	0	0	0	504	487	0	495	38	6	
6	0	0	0	0	504	483	0	491	38	6	
7	0	0	0	0	503	484	0	490	38	6	
8	0	0	0	0	507	484	0	486	38	6	
9	0	0	0	0	506	483	0	505	38	6	
10	0	0	0	0	506	482	0	510	38	6	
11	0	0	0	0	511	481	0	522	38	6	
12	0	0	0	0	512	484	0	518	38	6	
13	0	0	0	0	503	488	0	512	39	6	
14	0	0	0	0	505	490	0	522	38	6	
15	0	0	0	0	509	492	0	510	38	6	
0	0	0	0	0	514	494	0	505	38	6	
1	0	0	0	0	510	495	0	512	38	6	
2	0	0	0	0	508	494	0	532	38	6	
3	0	0	0	0	507	494	0	534	38	6	
4	0	0	0	0	512	494	0	524	38	6	
5	0	0	0	0	504	494	0	515	38	6	
6	0	0	0	0	505	496	0	503	38	6	
7	0	0	0	0	506	499	0	496	38	6	
8	0	0	0	0	504	502	0	492	38	6	
9	0	0	0	0	508	503	0	491	38	6	
10	0	0	0	0	509	503	0	486	38	6	
11	0	0	0	0	512	505	0	500	38	6	
12	0	0	0	0	506	504	0	523	38	6	
13	0	0	0	0	508	502	0	528	38	6	
14	0	0	0	0	504	501	0	547	38	6	
15	0	0	0	0	508	500	0	548	38	6	
0	0	0	0	0	505	500	0	536	38	6	
1	0	0	0	0	507	499	0	523	38	6	
2	0	0	0	0	507	501	0	513	38	6	
3	0	0	0	0	507	505	0	508	38	6	
4	0	0	0	0	510	508	0	501	38	6	
5	0	0	0	0	513	511	0	500	38	6	
6	0	0	0	0	508	507	0	495	38	6	
7	0	0	0	0	505	505	0	495	38	6	
8	0	0	0	0	504	504	0	494	38	6	
9	0	0	0	0	514	506	0	492	39	6	
10	0	0	0	0	508	508	0	491	38	6	
11	0	0	0	0	511	511	0	492	38	6	
12	0	0	0	0	506	511	0	499	38	6	
13	0	0	0	0	511	510	0	523	38	6	
14	0	0	0	0	506	510	0	555	38	6	
15	0	0	0	0	506	510	0	550	38	6	
0	0	0	0	0	508	513	0	562	38	6	
1	0	0	0	0	511	519	0	556	38	6	
2	0	0	0	0	509	525	0	554	39	6	
3	0	0	0	0	508	526	0	540	38	6	
4	0	0	0	0	511	526	0	529	38	6	
5	0	0	0	0	510	529	0	520	38	6	
6	0	0	0	0	512	534	0	512	38	6	
7	0	0	0	0	506	536	0	509	38	6	
8	0	0	0	0	507	538	0	503	38	6	
9	0	0	0	0	508	546	0	507	38	6	
10	0	0	0	0	507	555	0	499	38	6	
11	0	0	0	0	499	561	0	498	38	6	
12	0	0	0	0	505	568	0	497	38	6	
13	0	0	0	0	505	572	0	496	38	6	
14	0	0	0	0	512	575	0	495	38	6	
15	0	0	0	0	512	582	0	504	38	6	
0	0	0	0	0	507	592	0	530	38	6	
1	0	0	0	0	514	603	0	536	39	6	
2	0	0	0	0	511	607	0	553	38	6	
3	0	0	0	0	500	611	0	567	38	6	
4	0	0	0	0	508	618	0	562	38	6	
5	0	0	0	0	510	625	0	549	38	6	
6	0	0	0	0	505	631	0	535	38	6	
7	0	0	0	0	505	636	0	524	38	6	
8	0	0	0	0	501	639	0	527	38	6	
9	0	0	0	0	512	638	0	542	39	6	
10	0	0	0	0	510	633	0	542	38	6	
11	0	0	0	0	501	626	0	534	38	6	
12	0	0	0	0	504	616	0	524	38	6	
13	0	0	0	0	504	600	0	527	38	6	
14	0	0	0	0	508	587	0	524	38	6	
15	0	0	0	0	512	580	0	522	38	6	
0	0	0	0	0	507	575	0	542	38	6	
1	0	0	0	0	506	569	0	552	38	6	
2	0	0	0	0	505	564	0	548	38	6	
3	0	0	0	0	505	556	0	534	38	6	
4	0	0	0	0	513	548	0	523	38	6	
5	0	0	0	0	512	537	0	514	38	6	
6	0	0	0	0	502	529	0	507	38	6	
7	0	0	0	0	510	521	0	505	38	6	
8	0	0	0	0	504	512	0	499	38	6	
9	0	0	0	0	502	501	0	514	38	6	
10	0	0	0	0	515	486	0	524	38	6	
11	0	0	0	0	510	468	0	536	38	6	
12	0	0	0	0	508	455	0	534	38	6	
13	0	0	0	0	508	447	0	529	38	6	
14	0	0	0	0	508	438	0	523	38	6	
15	0	0	0	0	505	427	0	513	38	6	
0	0	0	0	0	505	418	0	504	38	6	
1	0	0	0	0	503	416	0	496	38	6	
2	0	0	0	0	504	422	0	507	38	6	
3	0	0	0	0	508	429	0	527	38	6	
4	0	0	0	0	512	435	0	539	38	6	
5	0	0	0	0	513	436	0	554	38	6	
6	0	0	0	0	503	436	0	560	38	6	
7	0	0	0	0	505	436	0	551	38	6	
8	0	0	0	0	504	435	0	539	38	6	
9	0	0	0	0	504	436	0	535	38	6	
10	0	0	0	0	508	437	0	524	38	6	
11	0	0	0	0	508	440	0	517	38	6	
12	0	0	0	0	511	439	0	512	38	6	
13	0	0	0	0	507	436	0	506	38	6	
14	0	0	0	0	507	438	0	504	38	6	
15	0	0	0	0	503	443	0	499	38	6	
0	0	0	0	0	508	451	0	497	38	6	
1	0	0	0	0	509	460	0	496	39	6	
2	0	0	0	0	508	471	0	496	38	6	
3	0	0	0	0	509	479	0	497	38	6	
4	0	0	0	0	510	483	0	493	38	6	
5	0	0	0	0	512	487	0	508	38	6	
6	0	0	0	0	506	491	0	529	38	6	
7	0	0	0	0	513	495	0	536	38	6	
8	0	0	0	0	507	497	0	553	38	6	
9	0	0	0	0	505	499	0	555	38	6	
10	0	0	0	0	501	497	0	544	38	6	
11	0	0	0	0	505	494	0	529	38	6	
12	0	0	0	0	505	492	0	516	38	6	
13	0	0	0	0	513	494	0	504	38	6	
14	0	0	0	0	504	498	0	495	38	6	
15	0	0	0	0	516	501	0	489	38	6	
0	0	0	0	0	506	501	0	484	38	6	
1	0	0	0	0	507	499	0	482	39	6	
2	0	0	0	0	501	497	0	503	38	6	
3	0	0	0	0	503	496	0	516	38	6	
4	0	0	0	0	508	496	0	513	38	6	
5	0	0	0	0	510	497	0	509	38	6	
6	0	0	0	0	510	500	0	499	38	6	
7	0	0	0	0	510	502	0	507	38	6	
8	0	0	0	0	503	502	0	505	38	6	
9	0	0	0	0	507	500	0	515	39	6	
10	0	0	0	0	509	499	0	516	38	6	
11	0	0	0	0	507	499	0	512	38	6	
12	0	0	0	0	505	500	0	513	38	6	
13	0	0	0	0	513	499	0	506	38	6	
14	0	0	0	0	512	498	0	499	38	6	
15	0	0	0	0	504	499	0	491	38	6	
0	0	0	0	0	504	500	0	487	38	6	
1	0	0	0	0	515	501	0	480	38	6	
2	0	0	0	0	508	501	0	476	38	6	
3	0	0	0	0	504	502	0	487	38	6	
4	0	0	0	0	502	502	0	508	38	6	
5	0	0	0	0	511	498	0	512	38	6	
6	0	0	0	0	507	492	0	507	38	6	
7	0	0	0	0	511	486	0	516	38	6	
8	0	0	0	0	505	487	0	523	38	6	
9	0	0	0	0	510	487	0	514	38	6	
10	0	0	0	0	504	486	0	502	38	6	
11	0	0	0	0	501	489	0	495	38	6	
12	0	0	0	0	511	493	0	484	38	6	
13	0	0	0	0	510	498	0	481	38	6	
14	0	0	0	0	511	501	0	477	38	6	
15	0	0	0	0	510	500	0	476	38	6	
0	0	0	0	0	505	498	0	472	38	6	
1	0	0	0	0	504	498	0	489	39	6	
2	0	0	0	0	503	501	0	510	38	6	
3	0	0	0	0	508	502	0	512	38	6	
4	0	0	0	0	508	500	0	508	38	6	
5	0	0	0	0	516	496	0	496	38	6	
6	0	0	0	0	512	497	0	487	38	6	
7	0	0	0	0	506	502	0	482	38	6	
8	0	0	0	0	506	505	0	486	38	6	
9	0	0	0	0	505	509	0	504	38	6	
10	0	0	0	0	505	508	0	508	38	6	
11	0	0	0	0	505	507	0	503	38	6	
12	0	0	0	0	505	505	0	504	38	6	
13	0	0	0	0	509	504	0	507	38	6	
14	0	0	0	0	512	502	0	494	39	6	
15	0	0	0	0	504	499	0	489	38	6	
0	0	0	0	0	507	497	0	483	38	6	
1	0	0	0	0	509	497	0	494	38	6	
2	0	0	0	0	510	499	0	513	38	6	
3	0	0	0	0	502	499	0	515	38	6	
4	0	0	0	0	501	499	0	509	38	6	
5	0	0	0	0	508	498	0	497	38	6	
6	0	0	0	0	508	496	0	495	38	6	
7	0	0	0	0	507	495	0	482	38	6	
8	0	0	0	0	514	495	0	482	38	6	
9	0	0	0	0	505	498	0	500	38	6	
10	0	0	0	0	501	504	0	511	38	6	
11	0	0	0	0	512	510	0	509	38	6	
12	0	0	0	0	504	511	0	499	38	6	
13	0	0	0	0	505	511	0	491	38	6	
14	0	0	0	0	510	514	0	483	38	6	
15	0	0	0	0	507	520	0	477	38	6	
0	0	0	0	0	508	520	0	486	38	6	
1	0	0	0	0	507	514	0	499	39	6	
2	0	0	0	0	506	512	0	502	38	6	
3	0	0	0	0	509	514	0	495	38	6	
4	0	0	0	0	512	513	0	489	38	6	
5	0	0	0	0	508	513	0	483	38	6	
6	0	0	0	0	504	512	0	481	38	6	
7	0	0	0	0	509	512	0	478	38	6	
8	0	0	0	0	500	511	0	476	38	6	
9	0	0	0	0	509	509	0	472	39	6	
10	0	0	0	0	511	507	0	471	38	6	
11	0	0	0	0	512	507	0	477	38	6	
12	0	0	0	0	503	511	0	506	38	6	
13	0	0	0	0	500	517	0	519	38	6	
14	0	0	0	0	510	521	0	535	38	6	
15	0	0	0	0	512	520	0	540	38	6	
0	0	0	0	0	510	514	0	534	38	6	
1	0	0	0	0	506	513	0	527	38	6	
2	0	0	0	0	511	511	0	516	38	6	
3	0	0	0	0	508	504	0	504	38	6	
4	0	0	0	0	503	502	0	496	38	6	
5	0	0	0	0	508	503	0	487	38	6	
6	0	0	0	0	506	502	0	483	39	6	
7	0	0	0	0	513	500	0	480	38	6	
8	0	0	0	0	511	499	0	478	38	6	
9	0	0	0	0	510	499	0	477	39	6	
10	0	0	0	0	511	503	0	473	38	6	
11	0	0	0	0	511	508	0	473	38	6	
12	0	0	0	0	498	509	0	471	38	6	
13	0	0	0	0	504	510	0	472	38	6	
14	0	0	0	0	511	516	0	483	38	6	
15	0	0	0	0	504	520	0	521	38	6	
0	0	0	0	0	507	521	0	513	38	6	
1	0	0	0	0	516	522	0	532	38	6	
2	0	0	0	0	508	522	0	536	38	6	
3	0	0	0	0	504	522	0	527	38	6	
4	0	0	0	0	511	523	0	514	38	6	
5	0	0	0	0	505	523	0	502	38	6	
6	0	0	0	0	506	522	0	492	39	6	
7	0	0	0	0	508	520	0	484	38	6	
8	0	0	0	0	506	520	0	493	38	6	
9	0	0	0	0	510	519	0	508	38	6	
10	0	0	0	0	502	516	0	513	38	6	
11	0	0	0	0	502	512	0	508	38	6	
12	0	0	0	0	512	510	0	513	38	6	
13	0	0	0	0	509	511	0	507	38	6	
14	0	0	0	0	508	515	0	502	38	6	
15	0	0	0	0	508	519	0	496	38	6	
0	0	0	0	0	509	524	0	493	38	6	
1	0	0	0	0	510	525	0	487	38	6	
2	0	0	0	0	507	520	0	485	38	6	
3	0	0	0	0	507	515	0	491	38	6	
4	0	0	0	0	509	512	0	513	38	6	
5	0	0	0	0	509	512	0	526	38	6	
6	0	0	0	0	511	512	0	519	38	6	
7	0	0	0	0	507	515	0	524	39	6	
8	0	0	0	0	510	516	0	536	38	6	
9	0	0	0	0	507	516	0	528	39	6	
10	0	0	0	0	518	515	0	517	38	6	
11	0	0	0	0	509	514	0	506	38	6	
12	0	0	0	0	508	515	0	502	38	6	
13	0	0	0	0	500	516	0	493	38	6	
14	0	0	0	0	501	518	0	491	38	6	
15	0	0	0	0	497	520	0	487	38	6	
0	0	0	0	0	498	520	0	485	38	6	
1	0	0	0	0	511	519	0	500	39	6	
2	0	0	0	0	506	519	0	523	38	6	
3	0	0	0	0	512	520	0	530	38	6	
4	0	0	0	0	510	519	0	525	38	6	
5	0	0	0	0	509	515	0	517	38	6	
6	0	0	0	0	512	513	0	508	38	6	
7	0	0	0	0	507	513	0	509	38	6	
8	0	0	0	0	506	516	0	525	38	6	
9	0	0	0	0	508	519	0	526	39	6	
10	0	0	0	0	513	519	0	518	38	6	
11	0	0	0	0	510	519	0	510	38	6	
12	0	0	0	0	512	521	0	512	38	6	
13	0	0	0	0	506	525	0	511	39	6	
14	0	0	0	0	506	526	0	507	38	6	
15	0	0	0	0	504	527	0	501	38	6	
0	0	0	0	0	502	527	0	497	38	6	
1	0	0	0	0	504	525	0	502	38	6	
2	0	0	0	0	500	526	0	526	38	6	
3	0	0	0	0	501	527	0	534	38	6	
4	0	0	0	0	511	527	0	526	38	6	
5	0	0	0	0	512	528	0	520	38	6	
6	0	0	0	0	510	531	0	508	38	6	
7	0	0	0	0	506	536	0	503	38	6	
8	0	0	0	0	513	536	0	498	38	6	
9	0	0	0	0	504	531	0	514	39	6	
10	0	0	0	0	502	527	0	531	38	6	
11	0	0	0	0	503	523	0	539	38	6	
12	0	0	0	0	504	518	0	557	38	6	
13	0	0	0	0	505	516	0	558	38	6	
14	0	0	0	0	508	516	0	564	38	6	
15	0	0	0	0	504	519	0	563	38	6	
0	0	0	0	0	510	523	0	547	38	6	
1	0	0	0	0	506	527	0	528	38	6	
2	0	0	0	0	514	529	0	516	38	6	
3	0	0	0	0	514	534	0	503	38	6	
4	0	0	0	0	515	539	0	497	38	6	
5	0	0	0	0	511	540	0	494	38	6	
6	0	0	0	0	504	538	0	492	38	6	
7	0	0	0	0	503	538	0	489	38	6	
8	0	0	0	0	503	536	0	488	38	6	
9	0	0	0	0	508	534	0	489	38	6	
10	0	0	0	0	510	537	0	487	38	6	
11	0	0	0	0	510	538	0	488	38	6	
12	0	0	0	0	505	540	0	486	38	6	
13	0	0	0	0	510	542	0	505	38	6	
14	0	0	0	0	510	544	0	523	38	6	
15	0	0	0	0	511	545	0	533	38	6	
0	0	0	0	0	502	545	0	547	38	6	
1	0	0	0	0	504	545	0	544	39	6	
2	0	0	0	0	509	544	0	540	38	6	
3	0	0	0	0	510	544	0	529	38	6	
4	0	0	0	0	504	544	0	514	38	6	
5	0	0	0	0	506	543	0	502	38	6	
6	0	0	0	0	511	545	0	491	38	6	
7	0	0	0	0	507	547	0	480	38	6	
8	0	0	0	0	512	547	0	476	38	6	
9	0	0	0	0	509	545	0	481	38	6	
10	0	0	0	0	514	543	0	506	38	6	
11	0	0	0	0	507	541	0	514	38	6	
12	0	0	0	0	519	540	0	508	38	6	
13	0	0	0	0	505	545	0	500	38	6	
14	0	0	0	0	504	549	0	492	38	6	
15	0	0	0	0	504	548	0	489	39	6	
0	0	0	0	0	510	548	0	509	38	6	
1	0	0	0	0	502	548	0	516	39	6	
2	0	0	0	0	500	551	0	515	38	6	
3	0	0	0	0	511	549	0	506	38	6	
4	0	0	0	0	507	548	0	499	38	6	
5	0	0	0	0	504	547	0	493	38	6	
6	0	0	0	0	502	545	0	487	38	6	
7	0	0	0	0	507	543	0	484	38	6	
8	0	0	0	0	511	542	0	480	38	6	
9	0	0	0	0	507	543	0	478	38	6	
10	0	0	0	0	511	541	0	499	38	6	
11	0	0	0	0	510	540	0	510	38	6	
12	0	0	0	0	512	537	0	508	38	6	
13	0	0	0	0	500	536	0	502	38	6	
14	0	0	0	0	512	536	0	498	38	6	
15	0	0	0	0	510	536	0	502	38	6	
0	0	0	0	0	506	531	0	495	38	6	
1	0	0	0	0	504	525	0	504	38	6	
2	0	0	0	0	503	521	0	523	38	6	
3	0	0	0	0	504	515	0	525	39	6	
4	0	0	0	0	509	507	0	516	39	6	
5	0	0	0	0	511	502	0	519	38	6	
6	0	0	0	0	513	500	0	494	38	6	
7	0	0	0	0	506	497	0	495	38	6	
8	0	0	0	0	512	494	0	487	38	6	
9	0	0	0	0	510	492	0	508	38	6	
10	0	0	0	0	510	492	0	514	38	6	
11	0	0	0	0	500	495	0	512	38	6	
12	0	0	0	0	506	494	0	504	38	6	
13	0	0	0	0	502	493	0	499	38	6	
14	0	0	0	0	510	493	0	491	38	6	
15	0	0	0	0	507	495	0	487	38	6	
0	0	0	0	0	504	498	0	493	38	6	
1	0	0	0	0	501	496	0	508	39	6	
2	0	0	0	0	505	490	0	510	38	6	
3	0	0	0	0	507	486	0	503	38	6	
4	0	0	0	0	506	483	0	494	38	6	
5	0	0	0	0	507	481	0	487	38	6	
6	0	0	0	0	508	478	0	485	38	6	
7	0	0	0	0	511	476	0	477	38	6	
8	0	0	0	0	514	478	0	475	39	6	
9	0	0	0	0	513	474	0	467	39	6	
10	0	0	0	0	508	471	0	480	39	6	
11	0	0	0	0	502	472	0	503	39	6	
12	0	0	0	0	508	474	0	510	38	6	
13	0	0	0	0	511	476	0	505	38	6	
14	0	0	0	0	506	478	0	516	38	6	
15	0	0	0	0	510	479	0	520	38	6	
0	0	0	0	0	505	476	0	515	38	6	
1	0	0	0	0	511	475	0	512	39	6	
2	0	0	0	0	512	474	0	502	38	6	
3	0	0	0	0	504	472	0	491	38	6	
4	0	0	0	0	504	472	0	484	38	6	
5	0	0	0	0	504	472	0	494	38	6	
6	0	0	0	0	503	470	0	475	38	6	
7	0	0	0	0	504	467	0	474	38	6	
8	0	0	0	0	510	465	0	468	38	6	
9	0	0	0	0	512	463	0	467	38	6	
10	0	0	0	0	507	461	0	465	38	6	
11	0	0	0	0	504	460	0	467	38	6	
12	0	0	0	0	510	458	0	466	38	6	
13	0	0	0	0	506	455	0	466	38	6	
14	0	0	0	0	507	454	0	480	38	6	
15	0	0	0	0	504	452	0	505	38	6	
0	0	0	0	0	508	450	0	513	38	6	
1	0	0	0	0	507	450	0	531	38	6	
2	0	0	0	0	511	451	0	536	38	6	
3	0	0	0	0	509	451	0	525	38	6	
4	0	0	0	0	509	453	0	521	38	6	
5	0	0	0	0	510	458	0	501	38	6	
6	0	0	0	0	508	459	0	496	38	6	
7	0	0	0	0	504	461	0	485	38	6	
8	0	0	0	0	510	463	0	496	38	6	
9	0	0	0	0	510	461	0	509	38	6	
10	0	0	0	0	511	460	0	512	38	6	
11	0	0	0	0	508	461	0	504	38	6	
12	0	0	0	0	501	460	0	509	38	6	
13	0	0	0	0	502	458	0	503	39	6	
14	0	0	0	0	512	458	0	498	38	6	
15	0	0	0	0	509	460	0	491	38	6	
0	0	0	0	0	508	462	0	489	38	6	
1	0	0	0	0	516	462	0	485	38	6	
2	0	0	0	0	507	465	0	483	38	6	
3	0	0	0	0	504	467	0	491	38	6	
4	0	0	0	0	509	473	0	517	38	6	
5	0	0	0	0	508	476	0	528	38	6	
6	0	0	0	0	508	477	0	522	38	6	
7	0	0	0	0	507	477	0	526	38	6	
8	0	0	0	0	502	476	0	534	38	6	
9	0	0	0	0	509	477	0	526	38	6	
10	0	0	0	0	517	476	0	513	38	6	
11	0	0	0	0	507	479	0	502	38	6	
12	0	0	0	0	501	483	0	493	38	6	
13	0	0	0	0	511	479	0	489	38	6	
14	0	0	0	0	512	475	0	486	38	6	
15	0	0	0	0	504	472	0	482	38	6	
0	0	0	0	0	503	470	0	479	38	6	
1	0	0	0	0	508	469	0	481	39	6	
2	0	0	0	0	508	468	0	477	38	6	
3	0	0	0	0	507	464	0	485	38	6	
4	0	0	0	0	508	462	0	508	38	6	
5	0	0	0	0	501	462	0	527	38	6	
6	0	0	0	0	511	465	0	540	38	6	
7	0	0	0	0	510	467	0	553	38	6	
8	0	0	0	0	509	467	0	545	38	6	
9	0	0	0	0	508	467	0	531	39	6	
10	0	0	0	0	506	465	0	527	39	6	
11	0	0	0	0	513	467	0	516	38	6	
12	0	0	0	0	504	470	0	509	38	6	
13	0	0	0	0	512	469	0	500	38	6	
14	0	0	0	0	504	462	0	495	38	6	
15	0	0	0	0	509	457	0	489	38	6	
0	0	0	0	0	510	463	0	488	38	6	
1	0	0	0	0	509	471	0	490	38	6	
2	0	0	0	0	508	475	0	514	38	6	
3	0	0	0	0	504	476	0	519	38	6	
4	0	0	0	0	504	476	0	516	38	6	
5	0	0	0	0	505	477	0	507	38	6	
6	0	0	0	0	501	480	0	501	38	6	
7	0	0	0	0	507	484	0	499	38	6	
8	0	0	0	0	506	482	0	515	38	6	
9	0	0	0	0	505	479	0	525	38	6	
10	0	0	0	0	505	476	0	522	39	6	
11	0	0	0	0	515	472	0	516	38	6	
12	0	0	0	0	507	468	0	508	38	6	
13	0	0	0	0	506	464	0	504	38	6	
14	0	0	0	0	505	461	0	499	38	6	
15	0	0	0	0	508	465	0	496	38	6	
0	0	0	0	0	505	471	0	493	38	6	
1	0	0	0	0	505	475	0	494	38	6	
2	0	0	0	0	510	480	0	515	38	6	
3	0	0	0	0	511	484	0	539	38	6	
4	0	0	0	0	509	486	0	524	38	6	
5	0	0	0	0	504	485	0	519	38	6	
6	0	0	0	0	506	485	0	509	38	6	
7	0	0	0	0	511	490	0	505	38	6	
8	0	0	0	0	508	492	0	512	38	6	
9	0	0	0	0	509	492	0	524	38	6	
10	0	0	0	0	511	490	0	522	38	6	
11	0	0	0	0	501	489	0	517	38	6	
12	0	0	0	0	507	487	0	518	38	6	
13	0	0	0	0	506	486	0	510	38	6	
14	0	0	0	0	508	487	0	503	38	6	
15	0	0	0	0	500	486	0	497	38	6	
0	0	0	0	0	506	487	0	492	38	6	
1	0	0	0	0	509	486	0	487	39	6	
2	0	0	0	0	508	481	0	485	38	6	
3	0	0	0	0	509	481	0	499	38	6	
4	0	0	0	0	514	480	0	524	38	6	
5	0	0	0	0	515	475	0	527	38	6	
6	0	0	0	0	499	470	0	524	38	6	
7	0	0	0	0	503	467	0	534	38	6	
8	0	0	0	0	497	471	0	540	38	6	
9	0	0	0	0	515	479	0	540	39	6	
10	0	0	0	0	505	485	0	553	38	6	
11	0	0	0	0	511	487	0	553	38	6	
12	0	0	0	0	508	489	0	540	38	6	
13	0	0	0	0	509	493	0	540	38	6	
14	0	0	0	0	509	493	0	549	38	6	
15	0	0	0	0	513	492	0	544	38	6	
0	0	0	0	0	505	492	0	554	38	6	
1	0	0	0	0	511	492	0	557	39	6	
2	0	0	0	0	510	495	0	547	39	6	
3	0	0	0	0	509	499	0	536	39	6	
4	0	0	0	0	507	499	0	525	38	6	
5	0	0	0	0	501	501	0	516	39	6	
6	0	0	0	0	500	502	0	509	38	6	
7	0	0	0	0	499	504	0	506	38	6	
8	0	0	0	0	502	505	0	501	38	6	
9	0	0	0	0	512	505	0	500	38	6	
10	0	0	0	0	515	503	0	521	38	6	
11	0	0	0	0	511	502	0	535	38	6	
12	0	0	0	0	510	501	0	534	38	6	
13	0	0	0	0	513	496	0	537	38	6	
14	0	0	0	0	507	494	0	536	38	6	
15	0	0	0	0	505	494	0	531	38	6	
0	0	0	0	0	512	491	0	544	38	6	
1	0	0	0	0	507	488	0	561	39	6	
2	0	0	0	0	505	487	0	556	38	6	
3	0	0	0	0	516	485	0	547	38	6	
4	0	0	0	0	503	487	0	535	38	6	
5	0	0	0	0	504	489	0	522	38	6	
6	0	0	0	0	506	492	0	515	38	6	
7	0	0	0	0	511	493	0	510	38	6	
8	0	0	0	0	512	495	0	507	38	6	
9	0	0	0	0	505	499	0	503	38	6	
10	0	0	0	0	511	503	0	520	38	6	
11	0	0	0	0	506	506	0	539	38	6	
12	0	0	0	0	510	505	0	541	38	6	
13	0	0	0	0	505	504	0	537	38	6	
14	0	0	0	0	510	500	0	551	38	6	
15	0	0	0	0	510	498	0	552	38	6	
0	0	0	0	0	509	498	0	539	38	6	
1	0	0	0	0	509	496	0	526	39	6	
2	0	0	0	0	501	490	0	519	38	6	
3	0	0	0	0	506	488	0	508	38	6	
4	0	0	0	0	500	490	0	502	38	6	
5	0	0	0	0	508	492	0	496	38	6	
6	0	0	0	0	509	493	0	491	38	6	
7	0	0	0	0	511	495	0	492	38	6	
8	0	0	0	0	511	497	0	491	38	6	
9	0	0	0	0	506	500	0	510	39	6	
10	0	0	0	0	506	501	0	533	38	6	
11	0	0	0	0	508	502	0	545	38	6	
12	0	0	0	0	510	504	0	564	38	6	
13	0	0	0	0	497	508	0	567	39	6	
14	0	0	0	0	515	511	0	572	38	6	
15	0	0	0	0	509	512	0	575	38	6	
0	0	0	0	0	506	512	0	560	38	6	
1	0	0	0	0	507	512	0	568	38	6	
2	0	0	0	0	509	509	0	557	38	6	
3	0	0	0	0	509	503	0	542	38	6	
4	0	0	0	0	509	500	0	525	38	6	
5	0	0	0	0	504	497	0	512	38	6	
6	0	0	0	0	502	496	0	505	38	6	
7	0	0	0	0	510	495	0	499	38	6	
8	0	0	0	0	516	493	0	494	38	6	
9	0	0	0	0	504	494	0	491	39	6	
10	0	0	0	0	505	494	0	497	38	6	
11	0	0	0	0	515	495	0	521	38	6	
12	0	0	0	0	505	498	0	530	38	6	
13	0	0	0	0	507	499	0	524	38	6	
14	0	0	0	0	517	503	0	530	38	6	
15	0	0	0	0	510	505	0	541	38	6	
0	0	0	0	0	503	507	0	537	38	6	
1	0	0	0	0	508	507	0	524	38	6	
2	0	0	0	0	506	504	0	511	38	6	
3	0	0	0	0	503	498	0	501	38	6	
4	0	0	0	0	507	493	0	495	38	6	
5	0	0	0	0	512	492	0	491	38	6	
6	0	0	0	0	512	495	0	488	38	6	
7	0	0	0	0	503	501	0	485	38	6	
8	0	0	0	0	508	503	0	498	38	6	
9	0	0	0	0	516	499	0	514	38	6	
10	0	0	0	0	503	496	0	520	38	6	
11	0	0	0	0	509	496	0	515	38	6	
12	0	0	0	0	504	498	0	518	38	6	
13	0	0	0	0	508	502	0	512	38	6	
14	0	0	0	0	506	504	0	505	38	6	
15	0	0	0	0	507	503	0	499	38	6	
0	0	0	0	0	512	505	0	494	38	6	
1	0	0	0	0	513	508	0	488	39	6	
2	0	0	0	0	509	512	0	483	38	6	
3	0	0	0	0	506	515	0	491	38	6	
4	0	0	0	0	509	514	0	516	38	6	
5	0	0	0	0	506	511	0	527	38	6	
6	0	0	0	0	511	507	0	522	38	6	
7	0	0	0	0	508	507	0	529	38	6	
8	0	0	0	0	511	506	0	539	38	6	
9	0	0	0	0	508	506	0	535	38	6	
10	0	0	0	0	507	506	0	544	38	6	
11	0	0	0	0	514	508	0	545	38	6	
12	0	0	0	0	501	507	0	532	38	6	
13	0	0	0	0	504	501	0	516	38	6	
14	0	0	0	0	505	496	0	504	38	6	
15	0	0	0	0	505	492	0	493	38	6	
0	0	0	0	0	505	491	0	480	38	6	
1	0	0	0	0	511	491	0	472	38	6	
2	0	0	0	0	508	487	0	467	38	6	
3	0	0	0	0	508	483	0	467	38	6	
4	0	0	0	0	501	481	0	466	38	6	
5	0	0	0	0	514	483	0	465	38	6	
6	0	0	0	0	506	489	0	465	38	6	
7	0	0	0	0	507	494	0	462	38	6	
8	0	0	0	0	509	501	0	468	38	6	
9	0	0	0	0	510	506	0	457	39	6	
10	0	0	0	0	503	508	0	460	38	6	
11	0	0	0	0	506	509	0	462	38	6	
12	0	0	0	0	512	508	0	464	38	6	
13	0	0	0	0	505	507	0	468	38	6	
14	0	0	0	0	503	507	0	469	38	6	
15	0	0	0	0	505	505	0	468	38	6	
0	0	0	0	0	509	505	0	465	38	6	
1	0	0	0	0	515	505	0	460	38	6	
2	0	0	0	0	500	507	0	468	38	6	
3	0	0	0	0	507	507	0	497	38	6	
4	0	0	0	0	509	506	0	512	38	6	
5	0	0	0	0	507	507	0	515	38	6	
6	0	0	0	0	510	508	0	507	38	6	
7	0	0	0	0	513	509	0	495	38	6	
8	0	0	0	0	511	511	0	482	38	6	
9	0	0	0	0	505	511	0	472	39	6	
10	0	0	0	0	507	511	0	470	38	6	
11	0	0	0	0	508	510	0	467	38	6	
12	0	0	0	0	509	511	0	470	38	6	
13	0	0	0	0	504	511	0	472	38	6	
14	0	0	0	0	501	507	0	473	38	6	
15	0	0	0	0	499	505	0	472	38	6	
0	0	0	0	0	507	503	0	466	38	6	
1	0	0	0	0	518	499	0	466	38	6	
2	0	0	0	0	511	495	0	492	38	6	
3	0	0	0	0	507	496	0	502	38	6	
4	0	0	0	0	512	498	0	517	38	6	
5	0	0	0	0	505	500	0	532	38	6	
6	0	0	0	0	507	500	0	532	38	6	
7	0	0	0	0	507	500	0	547	38	6	
8	0	0	0	0	515	497	0	550	38	6	
9	0	0	0	0	511	496	0	551	39	6	
10	0	0	0	0	511	496	0	557	38	6	
11	0	0	0	0	503	495	0	548	38	6	
12	0	0	0	0	503	496	0	560	38	6	
13	0	0	0	0	514	499	0	555	38	6	
14	0	0	0	0	507	503	0	537	38	6	
15	0	0	0	0	504	504	0	516	38	6	
0	0	0	0	0	505	504	0	496	38	6	
1	0	0	0	0	503	505	0	481	39	6	
2	0	0	0	0	505	504	0	495	38	6	
3	0	0	0	0	506	504	0	509	38	6	
4	0	0	0	0	506	503	0	510	38	6	
5	0	0	0	0	505	499	0	505	38	6	
6	0	0	0	0	510	497	0	500	38	6	
7	0	0	0	0	517	499	0	492	38	6	
8	0	0	0	0	508	503	0	487	38	6	
9	0	0	0	0	511	505	0	492	38	6	
10	0	0	0	0	506	505	0	516	38	6	
11	0	0	0	0	513	504	0	525	39	6	
12	0	0	0	0	512	502	0	519	38	6	
13	0	0	0	0	505	502	0	513	38	6	
14	0	0	0	0	507	503	0	503	39	6	
15	0	0	0	0	510	504	0	518	38	6	
0	0	0	0	0	508	502	0	518	38	6	
1	0	0	0	0	503	502	0	527	39	6	
2	0	0	0	0	510	505	0	523	38	6	
3	0	0	0	0	504	507	0	516	38	6	
4	0	0	0	0	503	507	0	508	38	6	
5	0	0	0	0	508	504	0	502	38	6	
6	0	0	0	0	507	502	0	497	38	6	
7	0	0	0	0	503	501	0	492	38	6	
8	0	0	0	0	512	499	0	489	38	6	
9	0	0	0	0	511	499	0	491	39	6	
10	0	0	0	0	505	500	0	512	38	6	
11	0	0	0	0	506	499	0	523	38	6	
12	0	0	0	0	509	497	0	534	39	6	
13	0	0	0	0	500	498	0	549	38	6	
14	0	0	0	0	510	500	0	547	38	6	
15	0	0	0	0	509	502	0	559	38	6	
0	0	0	0	0	505	503	0	558	38	6	
1	0	0	0	0	508	505	0	559	38	6	
2	0	0	0	0	509	505	0	527	38	6	
3	0	0	0	0	512	504	0	513	38	6	
4	0	0	0	0	507	500	0	503	38	6	
5	0	0	0	0	502	495	0	496	38	6	
6	0	0	0	0	511	495	0	492	38	6	
7	0	0	0	0	509	498	0	487	38	6	
8	0	0	0	0	505	499	0	492	38	6	
9	0	0	0	0	513	497	0	510	38	6	
10	0	0	0	0	513	498	0	521	38	6	
11	0	0	0	0	509	498	0	518	38	6	
12	0	0	0	0	505	495	0	512	38	6	
13	0	0	0	0	508	494	0	503	39	6	
14	0	0	0	0	502	495	0	499	38	6	
15	0	0	0	0	505	499	0	493	38	6	
0	0	0	0	0	504	502	0	503	38	6	
1	0	0	0	0	511	500	0	521	38	6	
2	0	0	0	0	500	500	0	521	38	6	
3	0	0	0	0	505	497	0	520	38	6	
4	0	0	0	0	504	493	0	510	38	6	
5	0	0	0	0	511	494	0	504	38	6	
6	0	0	0	0	505	500	0	501	38	6	
7	0	0	0	0	507	505	0	499	38	6	
8	0	0	0	0	506	508	0	496	38	6	
9	0	0	0	0	511	510	0	493	38	6	
10	0	0	0	0	507	508	0	505	38	6	
11	0	0	0	0	502	508	0	532	38	6	
12	0	0	0	0	505	507	0	540	38	6	
13	0	0	0	0	507	508	0	534	38	6	
14	0	0	0	0	511	510	0	546	38	6	
15	0	0	0	0	508	512	0	552	38	6	
0	0	0	0	0	505	514	0	544	38	6	
1	0	0	0	0	499	515	0	533	39	6	
2	0	0	0	0	512	515	0	522	38	6	
3	0	0	0	0	514	514	0	511	38	6	
4	0	0	0	0	505	514	0	505	38	6	
5	0	0	0	0	505	513	0	500	38	6	
6	0	0	0	0	505	510	0	499	38	6	
7	0	0	0	0	507	507	0	496	38	6	
8	0	0	0	0	512	507	0	494	38	6	
9	0	0	0	0	505	507	0	495	39	6	
10	0	0	0	0	514	508	0	492	39	6	
11	0	0	0	0	508	507	0	496	38	6	
12	0	0	0	0	504	508	0	494	39	6	
13	0	0	0	0	507	506	0	515	38	6	
14	0	0	0	0	507	502	0	535	38	6	
15	0	0	0	0	505	500	0	556	38	6	
0	0	0	0	0	499	501	0	560	38	6	
1	0	0	0	0	506	501	0	553	38	6	
2	0	0	0	0	510	503	0	540	38	6	
3	0	0	0	0	515	504	0	528	38	6	
4	0	0	0	0	516	505	0	518	38	6	
5	0	0	0	0	507	505	0	510	38	6	
6	0	0	0	0	506	505	0	504	38	6	
7	0	0	0	0	507	507	0	500	38	6	
8	0	0	0	0	510	512	0	499	38	6	
9	0	0	0	0	502	512	0	503	38	6	
10	0	0	0	0	500	512	0	531	38	6	
11	0	0	0	0	512	512	0	537	38	6	
12	0	0	0	0	500	511	0	534	38	6	
13	0	0	0	0	514	513	0	536	38	6	
14	0	0	0	0	514	516	0	532	38	6	
15	0	0	0	0	503	519	0	527	38	6	
0	0	0	0	0	509	519	0	543	38	6	
1	0	0	0	0	506	517	0	553	39	6	
2	0	0	0	0	514	517	0	548	38	6	
3	0	0	0	0	502	516	0	537	39	6	
4	0	0	0	0	511	513	0	527	38	6	
5	0	0	0	0	503	512	0	519	38	6	
6	0	0	0	0	511	512	0	512	38	6	
7	0	0	0	0	508	513	0	510	38	6	
8	0	0	0	0	505	508	0	504	38	6	
9	0	0	0	0	510	504	0	508	38	6	
10	0	0	0	0	506	500	0	521	38	6	
11	0	0	0	0	513	498	0	534	38	6	
12	0	0	0	0	504	499	0	530	38	6	
13	0	0	0	0	508	498	0	523	38	6	
14	0	0	0	0	504	497	0	517	38	6	
15	0	0	0	0	509	499	0	512	38	6	
0	0	0	0	0	508	504	0	526	38	6	
1	0	0	0	0	508	506	0	537	38	6	
2	0	0	0	0	503	506	0	536	39	6	
3	0	0	0	0	505	506	0	529	38	6	
4	0	0	0	0	511	505	0	521	38	6	
5	0	0	0	0	508	503	0	512	38	6	
6	0	0	0	0	510	502	0	509	38	6	
7	0	0	0	0	505	502	0	507	38	6	
8	0	0	0	0	513	501	0	504	38	6	
9	0	0	0	0	515	500	0	502	39	6	
10	0	0	0	0	502	500	0	515	38	6	
11	0	0	0	0	505	500	0	535	38	6	
12	0	0	0	0	505	502	0	535	38	6	
13	0	0	0	0	509	504	0	532	38	6	
14	0	0	0	0	505	505	0	545	38	6	
15	0	0	0	0	502	507	0	546	38	6	
0	0	0	0	0	502	505	0	543	38	6	
1	0	0	0	0	508	504	0	536	39	6	
2	0	0	0	0	503	502	0	525	38	6	
3	0	0	0	0	515	503	0	516	38	6	
4	0	0	0	0	512	503	0	509	38	6	
5	0	0	0	0	503	502	0	500	38	6	
6	0	0	0	0	512	501	0	499	38	6	
7	0	0	0	0	506	502	0	494	38	6	
8	0	0	0	0	510	504	0	493	38	6	
9	0	0	0	0	509	509	0	491	38	6	
10	0	0	0	0	505	515	0	492	38	6	
11	0	0	0	0	507	521	0	490	38	6	
12	0	0	0	0	510	525	0	490	38	6	
13	0	0	0	0	511	526	0	490	38	6	
14	0	0	0	0	512	520	0	508	38	6	
15	0	0	0	0	508	516	0	528	38	6	
0	0	0	0	0	508	512	0	534	38	6	
1	0	0	0	0	513	512	0	566	38	6	
2	0	0	0	0	502	510	0	551	38	6	
3	0	0	0	0	509	508	0	539	38	6	
4	0	0	0	0	505	509	0	523	38	6	
5	0	0	0	0	511	508	0	512	38	6	
6	0	0	0	0	513	509	0	502	38	6	
7	0	0	0	0	500	512	0	496	38	6	
8	0	0	0	0	506	514	0	511	38	6	
9	0	0	0	0	509	514	0	522	39	6	
10	0	0	0	0	509	513	0	533	38	6	
11	0	0	0	0	505	512	0	515	38	6	
12	0	0	0	0	505	506	0	508	38	6	
13	0	0	0	0	510	502	0	511	38	6	
14	0	0	0	0	513	502	0	508	38	6	
15	0	0	0	0	506	503	0	502	38	6	
0	0	0	0	0	506	503	0	497	38	6	
1	0	0	0	0	507	504	0	496	38	6	
2	0	0	0	0	506	508	0	508	38	6	
3	0	0	0	0	500	508	0	527	38	6	
4	0	0	0	0	505	505	0	527	38	6	
5	0	0	0	0	506	502	0	519	38	6	
6	0	0	0	0	512	500	0	509	38	6	
7	0	0	0	0	509	497	0	499	38	6	
8	0	0	0	0	504	496	0	498	38	6	
9	0	0	0	0	502	497	0	494	38	6	
10	0	0	0	0	504	499	0	517	38	6	
11	0	0	0	0	504	501	0	521	38	6	
12	0	0	0	0	510	504	0	517	38	6	
13	0	0	0	0	512	507	0	508	38	6	
14	0	0	0	0	513	509	0	500	38	6	
15	0	0	0	0	505	508	0	501	38	6	
0	0	0	0	0	504	507	0	514	38	6	
1	0	0	0	0	511	506	0	524	38	6	
2	0	0	0	0	508	506	0	520	38	6	
3	0	0	0	0	504	504	0	514	38	6	
4	0	0	0	0	503	507	0	510	38	6	
5	0	0	0	0	511	510	0	502	38	6	
6	0	0	0	0	511	512	0	495	38	6	
7	0	0	0	0	508	515	0	491	38	6	
8	0	0	0	0	507	516	0	487	38	6	
9	0	0	0	0	516	516	0	483	38	6	
10	0	0	0	0	512	515	0	504	38	6	
11	0	0	0	0	507	515	0	524	38	6	
12	0	0	0	0	512	518	0	515	38	6	
13	0	0	0	0	509	519	0	511	38	6	
14	0	0	0	0	507	517	0	507	38	6	
15	0	0	0	0	510	515	0	511	38	6	
0	0	0	0	0	506	518	0	505	38	6	
1	0	0	0	0	508	522	0	514	38	6	
2	0	0	0	0	510	522	0	533	38	6	
3	0	0	0	0	509	521	0	536	38	6	
4	0	0	0	0	504	519	0	529	38	6	
5	0	0	0	0	504	515	0	515	38	6	
6	0	0	0	0	504	508	0	506	38	6	
7	0	0	0	0	512	501	0	499	38	6	
8	0	0	0	0	505	497	0	496	38	6	
9	0	0	0	0	507	494	0	513	38	6	
10	0	0	0	0	510	491	0	520	38	6	
11	0	0	0	0	507	490	0	516	38	6	
12	0	0	0	0	509	493	0	509	38	6	
13	0	0	0	0	507	497	0	504	38	6	
14	0	0	0	0	501	499	0	496	38	6	
15	0	0	0	0	505	501	0	489	38	6	
0	0	0	0	0	507	501	0	484	38	6	
1	0	0	0	0	503	501	0	478	38	6	
2	0	0	0	0	512	500	0	480	38	6	
3	0	0	0	0	511	501	0	505	38	6	
4	0	0	0	0	506	501	0	521	38	6	
5	0	0	0	0	504	504	0	519	38	6	
6	0	0	0	0	505	509	0	530	38	6	
7	0	0	0	0	507	511	0	536	38	6	
8	0	0	0	0	511	511	0	537	38	6	
9	0	0	0	0	507	511	0	525	39	6	
10	0	0	0	0	510	511	0	523	38	6	
11	0	0	0	0	506	513	0	519	38	6	
12	0	0	0	0	504	517	0	512	38	6	
13	0	0	0	0	510	521	0	504	38	6	
14	0	0	0	0	511	522	0	498	38	6	
15	0	0	0	0	505	520	0	495	38	6	
0	0	0	0	0	508	517	0	490	38	6	
1	0	0	0	0	504	513	0	491	39	6	
2	0	0	0	0	500	511	0	515	38	6	
3	0	0	0	0	510	509	0	525	38	6	
4	0	0	0	0	511	507	0	522	38	6	
5	0	0	0	0	511	502	0	514	38	6	
6	0	0	0	0	511	500	0	505	38	6	
7	0	0	0	0	501	500	0	497	38	6	
8	0	0	0	0	509	499	0	510	38	6	
9	0	0	0	0	513	500	0	524	38	6	
10	0	0	0	0	512	500	0	520	38	6	
11	0	0	0	0	507	502	0	521	38	6	
12	0	0	0	0	509	506	0	504	38	6	
13	0	0	0	0	503	507	0	496	38	6	
14	0	0	0	0	510	505	0	491	38	6	
15	0	0	0	0	512	504	0	489	38	6	
0	0	0	0	0	509	508	0	487	38	6	
1	0	0	0	0	519	509	0	485	39	6	
2	0	0	0	0	503	508	0	504	38	6	
3	0	0	0	0	508	508	0	521	38	6	
4	0	0	0	0	508	510	0	524	38	6	
5	0	0	0	0	507	515	0	522	38	6	
6	0	0	0	0	509	516	0	537	38	6	
7	0	0	0	0	504	516	0	539	38	6	
8	0	0	0	0	506	521	0	529	38	6	
9	0	0	0	0	503	523	0	519	39	6	
10	0	0	0	0	511	521	0	513	38	6	
11	0	0	0	0	508	518	0	524	38	6	
12	0	0	0	0	506	516	0	512	38	6	
13	0	0	0	0	506	515	0	508	38	6	
14	0	0	0	0	508	515	0	503	38	6	
15	0	0	0	0	504	515	0	499	38	6	
0	0	0	0	0	514	513	0	497	38	6	
1	0	0	0	0	512	513	0	494	39	6	
2	0	0	0	0	507	514	0	509	38	6	
3	0	0	0	0	510	513	0	532	38	6	
4	0	0	0	0	502	510	0	538	38	6	
5	0	0	0	0	511	510	0	532	38	6	
6	0	0	0	0	513	512	0	542	38	6	
7	0	0	0	0	501	517	0	547	38	6	
8	0	0	0	0	502	523	0	537	38	6	
9	0	0	0	0	508	526	0	527	39	6	
10	0	0	0	0	505	528	0	516	38	6	
11	0	0	0	0	512	526	0	508	38	6	
12	0	0	0	0	511	519	0	502	38	6	
13	0	0	0	0	512	516	0	500	38	6	
14	0	0	0	0	500	516	0	497	38	6	
15	0	0	0	0	503	516	0	496	38	6	
0	0	0	0	0	516	513	0	494	38	6	
1	0	0	0	0	510	513	0	490	38	6	
2	0	0	0	0	504	513	0	492	38	6	
3	0	0	0	0	505	514	0	489	38	6	
4	0	0	0	0	510	516	0	492	38	6	
5	0	0	0	0	506	517	0	511	38	6	
6	0	0	0	0	506	520	0	532	39	6	
7	0	0	0	0	509	524	0	540	38	6	
8	0	0	0	0	504	525	0	558	38	6	
9	0	0	0	0	504	525	0	555	39	6	
10	0	0	0	0	512	523	0	542	38	6	
11	0	0	0	0	504	518	0	539	38	6	
12	0	0	0	0	513	515	0	531	38	6	
13	0	0	0	0	512	517	0	524	38	6	
14	0	0	0	0	505	520	0	516	38	6	
15	0	0	0	0	504	523	0	510	38	6	
0	0	0	0	0	506	524	0	506	38	6	
1	0	0	0	0	509	525	0	503	39	6	
2	0	0	0	0	508	527	0	504	38	6	
3	0	0	0	0	510	527	0	529	38	6	
4	0	0	0	0	514	524	0	543	38	6	
5	0	0	0	0	513	521	0	540	38	6	
6	0	0	0	0	507	517	0	544	38	6	
7	0	0	0	0	505	515	0	558	38	6	
8	0	0	0	0	507	512	0	558	38	6	
9	0	0	0	0	508	512	0	545	38	6	
10	0	0	0	0	506	512	0	534	38	6	
11	0	0	0	0	509	511	0	523	38	6	
12	0	0	0	0	507	509	0	516	38	6	
13	0	0	0	0	506	504	0	511	38	6	
14	0	0	0	0	514	500	0	506	38	6	
15	0	0	0	0	513	500	0	506	38	6	
0	0	0	0	0	504	508	0	508	38	6	
1	0	0	0	0	508	516	0	532	38	6	
2	0	0	0	0	505	521	0	537	39	6	
3	0	0	0	0	507	519	0	536	38	6	
4	0	0	0	0	507	511	0	528	38	6	
5	0	0	0	0	512	500	0	532	38	6	
6	0	0	0	0	510	495	0	518	39	6	
7	0	0	0	0	498	495	0	513	38	6	
8	0	0	0	0	505	492	0	508	38	6	
9	0	0	0	0	508	492	0	505	39	6	
10	0	0	0	0	509	496	0	503	38	6	
11	0	0	0	0	505	499	0	502	38	6	
12	0	0	0	0	515	502	0	500	38	6	
13	0	0	0	0	500	503	0	498	38	6	
14	0	0	0	0	508	505	0	513	38	6	
15	0	0	0	0	505	503	0	531	38	6	
0	0	0	0	0	520	504	0	538	38	6	
1	0	0	0	0	506	510	0	552	38	6	
2	0	0	0	0	513	515	0	560	38	6	
3	0	0	0	0	508	518	0	559	38	6	
4	0	0	0	0	510	515	0	551	38	6	
5	0	0	0	0	506	511	0	538	38	6	
6	0	0	0	0	499	507	0	524	38	6	
7	0	0	0	0	507	504	0	510	38	6	
8	0	0	0	0	511	502	0	502	38	6	
9	0	0	0	0	504	500	0	506	38	6	
10	0	0	0	0	513	499	0	525	38	6	
11	0	0	0	0	507	497	0	531	38	6	
12	0	0	0	0	508	494	0	526	39	6	
13	0	0	0	0	509	497	0	516	38	6	
14	0	0	0	0	507	505	0	510	39	6	
15	0	0	0	0	508	514	0	500	38	6	
0	0	0	0	0	513	517	0	498	38	6	
1	0	0	0	0	504	516	0	513	39	6	
2	0	0	0	0	506	515	0	533	38	6	
3	0	0	0	0	505	512	0	534	38	6	
4	0	0	0	0	503	508	0	527	38	6	
5	0	0	0	0	511	505	0	516	38	6	
6	0	0	0	0	511	499	0	507	38	6	
7	0	0	0	0	503	494	0	513	38	6	
8	0	0	0	0	503	491	0	525	38	6	
9	0	0	0	0	504	492	0	524	38	6	
10	0	0	0	0	506	494	0	515	38	6	
11	0	0	0	0	509	495	0	518	38	6	
12	0	0	0	0	511	493	0	512	38	6	
13	0	0	0	0	508	488	0	505	38	6	
14	0	0	0	0	506	482	0	499	38	6	
15	0	0	0	0	504	478	0	495	39	6	
0	0	0	0	0	512	475	0	491	38	6	
1	0	0	0	0	505	476	0	487	39	6	
2	0	0	0	0	511	479	0	496	38	6	
3	0	0	0	0	509	485	0	519	38	6	
4	0	0	0	0	507	492	0	537	38	6	
5	0	0	0	0	514	500	0	524	38	6	
6	0	0	0	0	511	505	0	516	38	6	
7	0	0	0	0	507	507	0	507	38	6	
8	0	0	0	0	512	511	0	504	38	6	
9	0	0	0	0	505	514	0	520	39	6	
10	0	0	0	0	506	518	0	529	38	6	
11	0	0	0	0	502	519	0	527	38	6	
12	0	0	0	0	508	517	0	519	38	6	
13	0	0	0	0	502	514	0	513	38	6	
14	0	0	0	0	505	511	0	505	38	6	
15	0	0	0	0	514	505	0	502	38	6	
0	0	0	0	0	506	500	0	506	38	6	
1	0	0	0	0	512	499	0	522	39	6	
2	0	0	0	0	503	500	0	523	38	6	
3	0	0	0	0	503	501	0	519	38	6	
4	0	0	0	0	508	497	0	510	38	6	
5	0	0	0	0	510	498	0	503	39	6	
6	0	0	0	0	512	497	0	499	39	6	
7	0	0	0	0	504	496	0	492	38	6	
8	0	0	0	0	515	496	0	487	39	6	
9	0	0	0	0	511	494	0	483	39	6	
10	0	0	0	0	516	494	0	495	38	6	
11	0	0	0	0	508	495	0	519	38	6	
12	0	0	0	0	499	496	0	523	38	6	
13	0	0	0	0	504	495	0	522	38	6	
14	0	0	0	0	510	496	0	529	38	6	
15	0	0	0	0	510	499	0	538	38	6	
0	0	0	0	0	505	502	0	530	38	6	
1	0	0	0	0	510	508	0	519	39	6	
2	0	0	0	0	511	510	0	510	38	6	
3	0	0	0	0	506	511	0	497	38	6	
4	0	0	0	0	507	511	0	492	38	6	
5	0	0	0	0	505	512	0	487	38	6	
6	0	0	0	0	507	515	0	486	38	6	
7	0	0	0	0	501	517	0	482	38	6	
8	0	0	0	0	513	518	0	481	38	6	
9	0	0	0	0	511	520	0	482	38	6	
10	0	0	0	0	505	523	0	480	38	6	
11	0	0	0	0	507	527	0	481	38	6	
12	0	0	0	0	502	532	0	480	38	6	
13	0	0	0	0	503	540	0	498	38	6	
14	0	0	0	0	508	550	0	520	38	6	
15	0	0	0	0	510	555	0	529	38	6	
0	0	0	0	0	508	558	0	543	38	6	
1	0	0	0	0	506	564	0	540	39	6	
2	0	0	0	0	513	569	0	526	38	6	
3	0	0	0	0	508	571	0	512	38	6	
4	0	0	0	0	513	570	0	503	38	6	
5	0	0	0	0	507	571	0	493	38	6	
6	0	0	0	0	501	574	0	490	38	6	
7	0	0	0	0	510	578	0	483	38	6	
8	0	0	0	0	510	586	0	481	38	6	
9	0	0	0	0	507	596	0	484	39	6	
10	0	0	0	0	506	608	0	510	38	6	
11	0	0	0	0	509	618	0	518	38	6	
12	0	0	0	0	508	627	0	515	38	6	
13	0	0	0	0	499	636	0	519	38	6	
14	0	0	0	0	505	642	0	514	39	6	
15	0	0	0	0	508	644	0	510	38	6	
0	0	0	0	0	509	644	0	525	38	5	
1	0	0	0	0	514	639	0	536	39	5	
2	0	0	0	0	511	628	0	528	38	6	
3	0	0	0	0	503	617	0	517	38	6	
4	0	0	0	0	509	609	0	508	38	6	
5	0	0	0	0	503	602	0	497	38	6	
6	0	0	0	0	512	593	0	488	39	6	
7	0	0	0	0	508	586	0	483	38	6	
8	0	0	0	0	505	580	0	477	38	5	
9	0	0	0	0	505	572	0	475	38	5	
10	0	0	0	0	508	563	0	496	38	6	
11	0	0	0	0	508	553	0	508	38	6	
12	0	0	0	0	511	547	0	507	38	6	
13	0	0	0	0	510	538	0	502	38	6	
14	0	0	0	0	504	532	0	504	38	6	
15	0	0	0	0	503	524	0	491	38	6	
0	0	0	0	0	508	516	0	503	38	6	
1	0	0	0	0	506	507	0	513	39	5	
2	0	0	0	0	501	494	0	511	38	5	
3	0	0	0	0	506	478	0	504	38	6	
4	0	0	0	0	511	463	0	495	38	6	
5	0	0	0	0	509	452	0	488	38	6	
6	0	0	0	0	508	448	0	483	38	6	
7	0	0	0	0	501	443	0	480	38	6	
8	0	0	0	0	505	438	0	478	38	6	
9	0	0	0	0	508	433	0	473	39	5	
10	0	0	0	0	516	430	0	488	38	5	
11	0	0	0	0	509	429	0	508	38	6	
12	0	0	0	0	506	430	0	509	38	6	
13	0	0	0	0	508	431	0	507	38	6	
14	0	0	0	0	503	431	0	524	38	6	
15	0	0	0	0	511	429	0	528	38	6	
0	0	0	0	0	503	427	0	519	38	6	
1	0	0	0	0	507	427	0	519	39	5	
2	0	0	0	0	502	431	0	497	38	5	
3	0	0	0	0	505	434	0	492	38	6	
4	0	0	0	0	515	433	0	483	38	6	
5	0	0	0	0	510	434	0	480	38	6	
6	0	0	0	0	503	440	0	477	39	6	
7	0	0	0	0	512	446	0	476	39	6	
8	0	0	0	0	511	455	0	476	39	6	
9	0	0	0	0	511	464	0	474	39	5	
10	0	0	0	0	504	471	0	475	38	5	
11	0	0	0	0	512	475	0	472	38	5	
12	0	0	0	0	502	477	0	477	38	6	
13	0	0	0	0	508	480	0	501	38	6	
14	0	0	0	0	510	486	0	517	38	6	
15	0	0	0	0	506	495	0	528	38	6	
0	0	0	0	0	500	504	0	555	38	6	
1	0	0	0	0	506	512	0	533	39	6	
2	0	0	0	0	511	516	0	523	38	5	
3	0	0	0	0	510	520	0	509	38	5	
4	0	0	0	0	509	520	0	501	38	6	
5	0	0	0	0	507	515	0	493	39	6	
6	0	0	0	0	511	507	0	489	38	6	
7	0	0	0	0	510	503	0	486	38	6	
8	0	0	0	0	502	501	0	481	38	6	
9	0	0	0	0	509	499	0	494	39	6	
10	0	0	0	0	503	496	0	517	38	5	
11	0	0	0	0	502	495	0	525	38	5	
12	0	0	0	0	504	495	0	521	38	6	
13	0	0	0	0	509	494	0	512	38	6	
14	0	0	0	0	505	495	0	512	38	6	
15	0	0	0	0	507	497	0	510	38	6	
0	0	0	0	0	505	498	0	508	38	6	
1	0	0	0	0	512	499	0	543	39	6	
2	0	0	0	0	510	499	0	534	38	5	
3	0	0	0	0	514	499	0	530	38	5	
4	0	0	0	0	511	499	0	518	38	5	
5	0	0	0	0	508	504	0	508	38	6	
6	0	0	0	0	504	506	0	502	38	6	
7	0	0	0	0	500	503	0	495	38	6	
8	0	0	0	0	510	500	0	503	38	6	
9	0	0	0	0	505	499	0	519	39	6	
10	0	0	0	0	509	497	0	523	38	6	
11	0	0	0	0	513	497	0	518	38	5	
12	0	0	0	0	512	499	0	511	38	5	
13	0	0	0	0	509	502	0	505	38	6	
14	0	0	0	0	507	503	0	501	38	6	
15	0	0	0	0	512	501	0	499	38	6	
0	0	0	0	0	503	499	0	498	38	6	
1	0	0	0	0	504	497	0	495	38	6	
2	0	0	0	0	500	497	0	507	38	6	
3	0	0	0	0	506	497	0	531	38	5	
4	0	0	0	0	506	497	0	537	38	5	
5	0	0	0	0	514	498	0	532	38	5	
6	0	0	0	0	507	498	0	541	38	6	
7	0	0	0	0	503	499	0	544	38	6	
8	0	0	0	0	506	501	0	543	38	6	
9	0	0	0	0	506	504	0	548	38	6	
10	0	0	0	0	508	508	0	546	39	6	
11	0	0	0	0	501	508	0	551	38	5	
12	0	0	0	0	510	508	0	556	38	5	
13	0	0	0	0	511	507	0	552	38	5	
14	0	0	0	0	508	507	0	562	38	6	
15	0	0	0	0	508	507	0	555	38	6	
0	0	0	0	0	509	507	0	547	38	6	
1	0	0	0	0	509	507	0	536	38	6	
2	0	0	0	0	505	506	0	520	38	6	
3	0	0	0	0	513	502	0	510	38	6	
4	0	0	0	0	503	497	0	501	38	5	
5	0	0	0	0	512	496	0	495	38	5	
6	0	0	0	0	507	499	0	492	38	6	
7	0	0	0	0	511	500	0	489	38	6	
8	0	0	0	0	507	503	0	487	38	6	
9	0	0	0	0	503	505	0	487	38	6	
10	0	0	0	0	505	505	0	484	38	6	
11	0	0	0	0	508	505	0	490	38	6	
12	0	0	0	0	510	501	0	483	38	5	
13	0	0	0	0	516	498	0	491	38	5	
14	0	0	0	0	511	495	0	509	38	5	
15	0	0	0	0	505	492	0	524	38	6	
0	0	0	0	0	509	492	0	532	38	6	
1	0	0	0	0	503	492	0	548	39	6	
2	0	0	0	0	505	495	0	542	38	6	
3	0	0	0	0	502	499	0	533	38	6	
4	0	0	0	0	509	504	0	513	38	5	
5	0	0	0	0	505	506	0	504	38	5	
6	0	0	0	0	507	505	0	495	38	5	
7	0	0	0	0	512	505	0	494	38	6	
8	0	0	0	0	507	503	0	511	38	6	
9	0	0	0	0	502	504	0	522	39	6	
10	0	0	0	0	513	504	0	518	38	6	
11	0	0	0	0	507	503	0	518	39	6	
12	0	0	0	0	512	504	0	518	38	6	
13	0	0	0	0	506	504	0	510	39	5	
14	0	0	0	0	506	504	0	501	38	5	
15	0	0	0	0	506	504	0	493	38	6	
0	0	0	0	0	507	509	0	489	38	6	
1	0	0	0	0	515	513	0	485	39	6	
2	0	0	0	0	503	511	0	484	38	6	
3	0	0	0	0	502	512	0	499	38	6	
4	0	0	0	0	502	512	0	516	38	6	
5	0	0	0	0	512	509	0	515	38	5	
6	0	0	0	0	507	507	0	514	38	5	
7	0	0	0	0	512	504	0	528	38	5	
8	0	0	0	0	505	504	0	536	38	6	
9	0	0	0	0	516	510	0	540	38	6	
10	0	0	0	0	508	515	0	555	38	6	
11	0	0	0	0	504	518	0	551	38	6	
12	0	0	0	0	505	521	0	545	38	6	
13	0	0	0	0	515	527	0	521	38	5	
14	0	0	0	0	507	533	0	513	38	5	
15	0	0	0	0	501	536	0	508	38	5	
0	0	0	0	0	502	539	0	523	38	6	
1	0	0	0	0	506	536	0	520	39	6	
2	0	0	0	0	510	528	0	512	38	6	
3	0	0	0	0	508	521	0	505	38	6	
4	0	0	0	0	508	515	0	500	38	6	
5	0	0	0	0	508	512	0	496	38	6	
6	0	0	0	0	510	517	0	493	38	5	
7	0	0	0	0	508	520	0	490	38	5	
8	0	0	0	0	507	520	0	487	38	6	
9	0	0	0	0	503	521	0	500	38	6	
10	0	0	0	0	511	521	0	519	38	6	
11	0	0	0	0	504	518	0	529	38	6	
12	0	0	0	0	508	511	0	524	38	6	
13	0	0	0	0	512	507	0	525	38	6	
14	0	0	0	0	510	507	0	521	38	5	
15	0	0	0	0	508	507	0	515	38	5	
0	0	0	0	0	500	509	0	532	38	6	
1	0	0	0	0	509	513	0	540	38	6	
2	0	0	0	0	512	521	0	534	38	6	
3	0	0	0	0	503	526	0	524	38	6	
4	0	0	0	0	504	528	0	512	38	6	
5	0	0	0	0	503	529	0	504	38	6	
6	0	0	0	0	511	528	0	513	38	5	
7	0	0	0	0	511	526	0	492	38	5	
8	0	0	0	0	502	523	0	495	38	5	
9	0	0	0	0	510	519	0	486	38	6	
10	0	0	0	0	503	518	0	509	38	6	
11	0	0	0	0	516	515	0	519	38	6	
12	0	0	0	0	505	515	0	519	38	6	
13	0	0	0	0	508	513	0	511	38	6	
14	0	0	0	0	514	512	0	505	38	6	
15	0	0	0	0	505	515	0	500	38	5	
0	0	0	0	0	505	519	0	511	38	5	
1	0	0	0	0	506	523	0	523	38	6	
2	0	0	0	0	498	526	0	520	38	6	
3	0	0	0	0	503	527	0	512	38	6	
4	0	0	0	0	510	527	0	502	38	6	
5	0	0	0	0	505	522	0	494	38	6	
6	0	0	0	0	502	515	0	486	38	6	
7	0	0	0	0	509	509	0	480	38	5	
8	0	0	0	0	509	509	0	475	38	5	
9	0	0	0	0	510	510	0	470	38	6	
10	0	0	0	0	510	508	0	466	38	6	
11	0	0	0	0	512	507	0	468	38	6	
12	0	0	0	0	512	509	0	468	38	6	
13	0	0	0	0	507	510	0	472	38	6	
14	0	0	0	0	509	511	0	472	38	6	
15	0	0	0	0	518	515	0	475	38	5	
0	0	0	0	0	505	522	0	465	38	5	
1	0	0	0	0	507	530	0	462	38	5	
2	0	0	0	0	510	538	0	460	38	6	
3	0	0	0	0	502	540	0	464	38	6	
4	0	0	0	0	510	539	0	463	38	6	
5	0	0	0	0	505	535	0	467	38	6	
6	0	0	0	0	496	532	0	465	38	6	
7	0	0	0	0	503	535	0	468	38	6	
8	0	0	0	0	510	539	0	465	39	5	
9	0	0	0	0	507	540	0	482	39	5	
10	0	0	0	0	513	539	0	506	38	6	
11	0	0	0	0	508	543	0	509	38	6	
12	0	0	0	0	510	548	0	504	38	6	
13	0	0	0	0	511	549	0	495	38	6	
14	0	0	0	0	509	549	0	485	38	6	
15	0	0	0	0	502	548	0	478	38	6	
0	0	0	0	0	514	546	0	468	38	5	
1	0	0	0	0	511	541	0	463	38	5	
2	0	0	0	0	505	534	0	460	38	6	
3	0	0	0	0	505	529	0	479	38	6	
4	0	0	0	0	508	528	0	503	38	6	
5	0	0	0	0	509	527	0	511	38	6	
6	0	0	0	0	501	529	0	534	38	6	
7	0	0	0	0	513	532	0	532	38	6	
8	0	0	0	0	513	535	0	539	38	5	
9	0	0	0	0	507	536	0	545	38	5	
10	0	0	0	0	509	538	0	543	38	5	
11	0	0	0	0	506	543	0	551	38	6	
12	0	0	0	0	508	546	0	542	38	6	
13	0	0	0	0	504	544	0	523	38	6	
14	0	0	0	0	509	544	0	504	38	6	
15	0	0	0	0	509	544	0	498	38	6	
0	0	0	0	0	510	544	0	513	38	6	
1	0	0	0	0	513	541	0	515	38	5	
2	0	0	0	0	506	538	0	526	38	5	
3	0	0	0	0	510	535	0	550	38	6	
4	0	0	0	0	508	535	0	531	38	6	
5	0	0	0	0	508	534	0	537	38	6	
6	0	0	0	0	505	535	0	538	38	6	
7	0	0	0	0	510	540	0	550	38	6	
8	0	0	0	0	505	541	0	520	38	6	
9	0	0	0	0	502	540	0	507	38	5	
10	0	0	0	0	503	540	0	492	38	5	
11	0	0	0	0	519	538	0	484	39	6	
12	0	0	0	0	508	539	0	475	38	6	
13	0	0	0	0	505	543	0	475	38	6	
14	0	0	0	0	504	543	0	469	38	6	
15	0	0	0	0	507	540	0	470	38	6	
0	0	0	0	0	511	540	0	467	38	6	
1	0	0	0	0	508	545	0	465	38	5	
2	0	0	0	0	509	548	0	465	38	5	
3	0	0	0	0	506	551	0	467	38	5	
4	0	0	0	0	504	552	0	471	38	6	
5	0	0	0	0	512	551	0	498	38	6	
6	0	0	0	0	508	552	0	515	38	6	
7	0	0	0	0	500	553	0	526	38	6	
8	0	0	0	0	499	553	0	539	38	6	
9	0	0	0	0	510	549	0	530	38	6	
10	0	0	0	0	510	546	0	518	38	5	
11	0	0	0	0	503	544	0	515	38	5	
12	0	0	0	0	509	543	0	521	38	6	
13	0	0	0	0	512	536	0	500	38	6	
14	0	0	0	0	507	529	0	502	38	6	
15	0	0	0	0	505	531	0	490	38	6	
0	0	0	0	0	507	535	0	487	38	6	
1	0	0	0	0	501	537	0	483	38	6	
2	0	0	0	0	514	535	0	493	38	5	
3	0	0	0	0	512	534	0	518	38	5	
4	0	0	0	0	507	536	0	531	38	5	
5	0	0	0	0	508	536	0	525	38	6	
6	0	0	0	0	508	534	0	518	38	6	
7	0	0	0	0	507	533	0	507	38	6	
8	0	0	0	0	509	530	0	500	38	6	
9	0	0	0	0	515	523	0	514	38	6	
10	0	0	0	0	512	516	0	520	38	5	
11	0	0	0	0	510	511	0	515	38	5	
12	0	0	0	0	511	505	0	505	39	5	
13	0	0	0	0	505	500	0	498	39	6	
14	0	0	0	0	508	495	0	491	39	6	
15	0	0	0	0	512	492	0	486	38	6	
0	0	0	0	0	505	497	0	494	38	6	
1	0	0	0	0	512	509	0	511	39	6	
2	0	0	0	0	511	517	0	513	38	6	
3	0	0	0	0	507	519	0	509	38	5	
4	0	0	0	0	508	515	0	501	38	5	
5	0	0	0	0	502	511	0	496	38	6	
6	0	0	0	0	513	507	0	493	38	6	
7	0	0	0	0	511	504	0	495	38	6	
8	0	0	0	0	501	502	0	490	38	6	
9	0	0	0	0	504	498	0	490	38	6	
10	0	0	0	0	509	493	0	500	38	6	
11	0	0	0	0	506	487	0	529	38	5	
12	0	0	0	0	507	485	0	535	38	5	
13	0	0	0	0	508	486	0	531	38	5	
14	0	0	0	0	512	487	0	518	38	6	
15	0	0	0	0	507	487	0	523	38	6	
0	0	0	0	0	512	491	0	535	38	6	
1	0	0	0	0	506	493	0	539	38	6	
2	0	0	0	0	509	494	0	555	38	6	
3	0	0	0	0	505	494	0	556	38	5	
4	0	0	0	0	510	493	0	556	38	5	
5	0	0	0	0	511	489	0	547	39	5	
6	0	0	0	0	508	487	0	536	38	6	
7	0	0	0	0	506	484	0	524	38	6	
8	0	0	0	0	504	478	0	513	38	6	
9	0	0	0	0	500	475	0	519	38	6	
10	0	0	0	0	501	472	0	540	38	6	
11	0	0	0	0	504	468	0	543	38	6	
12	0	0	0	0	510	468	0	536	38	5	
13	0	0	0	0	508	468	0	524	38	5	
14	0	0	0	0	511	467	0	518	38	6	
15	0	0	0	0	509	470	0	511	38	6	
0	0	0	0	0	511	471	0	510	38	6	
1	0	0	0	0	504	468	0	505	38	6	
2	0	0	0	0	509	464	0	503	38	6	
3	0	0	0	0	511	457	0	513	38	6	
4	0	0	0	0	510	454	0	536	38	5	
5	0	0	0	0	504	452	0	542	38	5	
6	0	0	0	0	503	456	0	560	38	5	
7	0	0	0	0	504	459	0	559	38	6	
8	0	0	0	0	509	462	0	548	38	6	
9	0	0	0	0	509	462	0	541	39	6	
10	0	0	0	0	502	462	0	539	38	6	
11	0	0	0	0	504	460	0	528	38	6	
12	0	0	0	0	512	457	0	521	38	5	
13	0	0	0	0	515	459	0	513	38	5	
14	0	0	0	0	502	461	0	512	38	5	
15	0	0	0	0	507	463	0	508	38	6	
0	0	0	0	0	506	462	0	507	38	6	
1	0	0	0	0	513	462	0	504	39	6	
2	0	0	0	0	511	464	0	503	38	6	
3	0	0	0	0	500	466	0	503	38	6	
4	0	0	0	0	509	467	0	504	38	6	
5	0	0	0	0	508	469	0	507	38	5	
6	0	0	0	0	508	469	0	525	38	5	
7	0	0	0	0	511	470	0	546	38	6	
8	0	0	0	0	512	471	0	553	38	6	
9	0	0	0	0	505	476	0	573	38	6	
10	0	0	0	0	500	479	0	572	38	6	
11	0	0	0	0	513	479	0	559	38	6	
12	0	0	0	0	502	481	0	543	38	6	
13	0	0	0	0	503	480	0	533	38	5	
14	0	0	0	0	503	476	0	524	38	5	
15	0	0	0	0	507	470	0	536	38	5	
0	0	0	0	0	507	466	0	534	38	6	
1	0	0	0	0	511	468	0	549	39	6	
2	0	0	0	0	509	471	0	547	38	6	
3	0	0	0	0	505	470	0	542	38	6	
4	0	0	0	0	507	470	0	537	38	6	
5	0	0	0	0	508	473	0	529	38	5	
6	0	0	0	0	515	475	0	525	38	5	
7	0	0	0	0	515	472	0	523	38	5	
8	0	0	0	0	513	470	0	521	38	6	
9	0	0	0	0	507	472	0	515	39	6	
10	0	0	0	0	501	474	0	531	38	6	
11	0	0	0	0	504	473	0	552	38	6	
12	0	0	0	0	506	472	0	555	38	6	
13	0	0	0	0	513	472	0	551	38	6	
14	0	0	0	0	504	471	0	566	38	5	
15	0	0	0	0	504	474	0	567	38	5	
0	0	0	0	0	510	479	0	574	38	6	
1	0	0	0	0	507	481	0	578	38	6	
2	0	0	0	0	511	480	0	575	38	6	
3	0	0	0	0	507	479	0	583	38	6	
4	0	0	0	0	503	478	0	579	38	6	
5	0	0	0	0	510	476	0	563	38	6	
6	0	0	0	0	514	472	0	547	38	5	
7	0	0	0	0	507	478	0	534	38	5	
8	0	0	0	0	508	484	0	523	38	6	
9	0	0	0	0	508	486	0	534	39	6	
10	0	0	0	0	505	485	0	552	38	6	
11	0	0	0	0	506	482	0	553	38	6	
12	0	0	0	0	503	480	0	544	38	6	
13	0	0	0	0	503	479	0	538	38	6	
14	0	0	0	0	506	480	0	523	38	5	
15	0	0	0	0	511	483	0	529	38	5	
0	0	0	0	0	508	488	0	538	38	5	
1	0	0	0	0	516	489	0	535	39	6	
2	0	0	0	0	509	487	0	525	38	6	
3	0	0	0	0	510	483	0	515	38	6	
4	0	0	0	0	508	476	0	509	38	6	
5	0	0	0	0	503	470	0	505	39	6	
6	0	0	0	0	506	472	0	504	38	6	
7	0	0	0	0	507	478	0	503	38	5	
8	0	0	0	0	505	479	0	500	38	5	
9	0	0	0	0	506	479	0	512	38	6	
10	0	0	0	0	503	475	0	537	38	6	
11	0	0	0	0	508	470	0	545	38	6	
12	0	0	0	0	504	468	0	539	39	6	
13	0	0	0	0	515	468	0	527	38	6	
14	0	0	0	0	506	473	0	535	38	6	
15	0	0	0	0	506	480	0	547	38	5	
0	0	0	0	0	505	489	0	551	39	5	
1	0	0	0	0	508	493	0	564	38	6	
2	0	0	0	0	514	492	0	568	38	6	
3	0	0	0	0	504	487	0	565	38	6	
4	0	0	0	0	505	483	0	558	39	6	
5	0	0	0	0	501	479	0	543	39	6	
6	0	0	0	0	505	479	0	532	39	6	
7	0	0	0	0	508	478	0	518	38	5	
8	0	0	0	0	507	479	0	512	38	5	
9	0	0	0	0	500	480	0	513	39	5	
10	0	0	0	0	512	479	0	536	38	6	
11	0	0	0	0	514	479	0	542	38	6	
12	0	0	0	0	512	478	0	535	38	6	
13	0	0	0	0	500	479	0	525	38	6	
14	0	0	0	0	499	484	0	516	38	6	
15	0	0	0	0	511	490	0	510	38	6	
0	0	0	0	0	507	490	0	506	38	5	
1	0	0	0	0	512	494	0	521	39	5	
2	0	0	0	0	504	499	0	538	38	6	
3	0	0	0	0	506	497	0	541	38	6	
4	0	0	0	0	504	495	0	531	38	6	
5	0	0	0	0	509	495	0	521	38	6	
6	0	0	0	0	507	494	0	510	38	6	
7	0	0	0	0	506	492	0	515	38	6	
8	0	0	0	0	502	491	0	534	38	5	
9	0	0	0	0	510	490	0	534	39	5	
10	0	0	0	0	511	491	0	528	38	6	
11	0	0	0	0	505	491	0	528	38	6	
12	0	0	0	0	511	490	0	523	38	6	
13	0	0	0	0	503	487	0	516	38	6	
14	0	0	0	0	504	482	0	510	38	6	
15	0	0	0	0	510	477	0	504	38	6	
0	0	0	0	0	505	484	0	501	38	5	
1	0	0	0	0	507	498	0	494	39	5	
2	0	0	0	0	508	504	0	501	38	5	
3	0	0	0	0	509	502	0	525	38	6	
4	0	0	0	0	511	498	0	537	38	6	
5	0	0	0	0	511	499	0	532	38	6	
6	0	0	0	0	503	505	0	522	38	6	
7	0	0	0	0	508	509	0	514	38	6	
8	0	0	0	0	506	508	0	508	38	6	
9	0	0	0	0	509	502	0	524	38	5	
10	0	0	0	0	512	499	0	529	38	5	
11	0	0	0	0	508	501	0	524	38	6	
12	0	0	0	0	510	499	0	515	38	6	
13	0	0	0	0	504	496	0	510	38	6	
14	0	0	0	0	504	495	0	501	38	6	
15	0	0	0	0	509	496	0	496	38	6	
0	0	0	0	0	510	497	0	503	38	6	
1	0	0	0	0	502	501	0	520	38	5	
2	0	0	0	0	500	506	0	523	38	5	
3	0	0	0	0	509	508	0	515	38	6	
4	0	0	0	0	512	508	0	507	38	6	
5	0	0	0	0	507	509	0	499	38	6	
6	0	0	0	0	504	513	0	496	38	6	
7	0	0	0	0	506	519	0	497	38	6	
8	0	0	0	0	507	522	0	516	38	6	
9	0	0	0	0	508	524	0	526	38	5	
10	0	0	0	0	509	520	0	523	38	5	
11	0	0	0	0	507	516	0	523	38	5	
12	0	0	0	0	512	512	0	524	38	6	
13	0	0	0	0	513	509	0	518	38	6	
14	0	0	0	0	511	504	0	510	38	6	
15	0	0	0	0	507	500	0	503	38	6	
0	0	0	0	0	510	497	0	512	38	6	
1	0	0	0	0	508	494	0	497	38	6	
2	0	0	0	0	507	493	0	497	38	5	
3	0	0	0	0	507	494	0	514	38	5	
4	0	0	0	0	503	493	0	535	38	6	
5	0	0	0	0	510	493	0	535	38	6	
6	0	0	0	0	505	494	0	529	38	6	
7	0	0	0	0	503	497	0	522	38	6	
8	0	0	0	0	508	495	0	514	38	6	
9	0	0	0	0	505	491	0	522	38	6	
10	0	0	0	0	507	488	0	543	38	5	
11	0	0	0	0	500	490	0	549	38	5	
12	0	0	0	0	508	494	0	542	38	6	
13	0	0	0	0	509	496	0	531	38	6	
14	0	0	0	0	507	499	0	520	38	6	
15	0	0	0	0	507	501	0	521	38	6	
0	0	0	0	0	505	503	0	534	38	6	
1	0	0	0	0	510	504	0	533	39	6	
2	0	0	0	0	509	504	0	524	38	5	
3	0	0	0	0	507	505	0	516	38	5	
4	0	0	0	0	511	508	0	509	38	5	
5	0	0	0	0	503	504	0	504	38	6	
6	0	0	0	0	510	500	0	500	38	6	
7	0	0	0	0	510	499	0	505	38	6	
8	0	0	0	0	511	501	0	492	38	6	
9	0	0	0	0	504	502	0	497	39	6	
10	0	0	0	0	504	503	0	521	38	6	
11	0	0	0	0	509	503	0	529	38	5	
12	0	0	0	0	508	501	0	526	38	5	
13	0	0	0	0	511	499	0	529	38	6	
14	0	0	0	0	504	501	0	526	38	6	
15	0	0	0	0	509	504	0	522	38	6	
0	0	0	0	0	502	507	0	539	38	6	
1	0	0	0	0	509	507	0	548	39	6	
2	0	0	0	0	507	505	0	547	38	6	
3	0	0	0	0	511	505	0	531	39	5	
4	0	0	0	0	508	502	0	521	39	5	
5	0	0	0	0	510	500	0	511	39	6	
6	0	0	0	0	509	507	0	502	39	6	
7	0	0	0	0	508	515	0	497	38	6	
8	0	0	0	0	509	514	0	493	38	6	
9	0	0	0	0	506	508	0	494	39	6	
10	0	0	0	0	504	504	0	516	38	6	
11	0	0	0	0	507	503	0	537	38	5	
12	0	0	0	0	511	502	0	528	38	5	
13	0	0	0	0	512	503	0	524	38	5	
14	0	0	0	0	507	503	0	516	39	6	
15	0	0	0	0	511	506	0	512	39	6	
0	0	0	0	0	508	510	0	521	38	6	
1	0	0	0	0	507	511	0	533	38	6	
2	0	0	0	0	506	508	0	539	38	6	
3	0	0	0	0	504	504	0	558	38	6	
4	0	0	0	0	505	505	0	560	38	5	
5	0	0	0	0	502	502	0	549	38	5	
6	0	0	0	0	508	499	0	548	38	6	
7	0	0	0	0	502	499	0	557	38	6	
8	0	0	0	0	505	503	0	548	39	6	
9	0	0	0	0	508	508	0	537	39	6	
10	0	0	0	0	515	510	0	534	38	6	
11	0	0	0	0	505	508	0	526	38	6	
12	0	0	0	0	509	504	0	517	38	5	
13	0	0	0	0	505	505	0	510	38	5	
14	0	0	0	0	506	506	0	508	38	6	
15	0	0	0	0	508	504	0	500	38	6	
0	0	0	0	0	511	500	0	498	38	6	
1	0	0	0	0	505	495	0	505	39	6	
2	0	0	0	0	509	494	0	530	38	6	
3	0	0	0	0	511	492	0	538	38	6	
4	0	0	0	0	513	491	0	534	38	5	
5	0	0	0	0	502	497	0	527	38	5	
6	0	0	0	0	505	504	0	518	38	5	
7	0	0	0	0	504	508	0	518	38	6	
8	0	0	0	0	508	509	0	531	38	6	
9	0	0	0	0	510	510	0	541	38	6	
10	0	0	0	0	510	513	0	536	38	6	
11	0	0	0	0	501	515	0	528	38	6	
12	0	0	0	0	508	517	0	522	38	6	
13	0	0	0	0	513	518	0	516	38	5	
14	0	0	0	0	509	519	0	512	38	5	
15	0	0	0	0	507	521	0	509	38	6	
0	0	0	0	0	508	520	0	507	38	6	
1	0	0	0	0	504	521	0	504	39	6	
2	0	0	0	0	507	521	0	527	38	6	
3	0	0	0	0	511	526	0	541	38	6	
4	0	0	0	0	511	528	0	548	38	6	
5	0	0	0	0	505	521	0	537	38	5	
6	0	0	0	0	506	509	0	532	38	5	
7	0	0	0	0	504	496	0	524	38	5	
8	0	0	0	0	513	483	0	538	38	6	
9	0	0	0	0	515	478	0	550	39	6	
10	0	0	0	0	502	478	0	546	38	6	
11	0	0	0	0	504	477	0	540	38	6	
12	0	0	0	0	506	476	0	529	38	6	
13	0	0	0	0	505	479	0	533	38	5	
14	0	0	0	0	510	484	0	529	38	5	
15	0	0	0	0	512	488	0	531	38	5	
0	0	0	0	0	504	494	0	550	38	6	
1	0	0	0	0	504	501	0	570	39	6	
2	0	0	0	0	512	504	0	545	38	6	
3	0	0	0	0	507	507	0	537	38	6	
4	0	0	0	0	505	509	0	527	38	6	
5	0	0	0	0	511	508	0	522	38	6	
6	0	0	0	0	505	508	0	515	38	5	
7	0	0	0	0	507	508	0	511	38	5	
8	0	0	0	0	512	509	0	507	38	6	
9	0	0	0	0	511	508	0	510	39	6	
10	0	0	0	0	511	506	0	534	38	6	
11	0	0	0	0	507	501	0	541	39	6	
12	0	0	0	0	505	496	0	536	38	6	
13	0	0	0	0	511	497	0	527	38	6	
14	0	0	0	0	509	498	0	520	38	5	
15	0	0	0	0	505	496	0	516	38	5	
0	0	0	0	0	509	495	0	532	38	6	
1	0	0	0	0	518	502	0	540	39	6	
2	0	0	0	0	510	512	0	536	38	6	
3	0	0	0	0	507	515	0	527	38	6	
4	0	0	0	0	500	516	0	521	39	6	
5	0	0	0	0	505	515	0	514	38	6	
6	0	0	0	0	504	513	0	509	38	5	
7	0	0	0	0	507	511	0	505	38	5	
8	0	0	0	0	505	506	0	503	38	5	
9	0	0	0	0	503	505	0	500	38	6	
10	0	0	0	0	501	505	0	522	38	6	
11	0	0	0	0	507	504	0	534	38	6	
12	0	0	0	0	510	504	0	532	38	6	
13	0	0	0	0	509	504	0	530	38	6	
14	0	0	0	0	510	511	0	535	38	6	
15	0	0	0	0	510	512	0	537	39	5	
0	0	0	0	0	504	508	0	528	38	5	
1	0	0	0	0	512	505	0	530	38	6	
2	0	0	0	0	504	501	0	546	38	6	
3	0	0	0	0	509	496	0	544	38	6	
4	0	0	0	0	506	494	0	543	38	6	
5	0	0	0	0	505	496	0	518	38	6	
6	0	0	0	0	503	495	0	507	38	6	
7	0	0	0	0	510	493	0	498	38	5	
8	0	0	0	0	505	494	0	498	38	5	
9	0	0	0	0	508	497	0	514	39	6	
10	0	0	0	0	513	504	0	526	38	6	
11	0	0	0	0	511	512	0	520	38	6	
12	0	0	0	0	506	511	0	514	38	6	
13	0	0	0	0	507	504	0	505	38	6	
14	0	0	0	0	508	500	0	501	38	6	
15	0	0	0	0	509	498	0	494	38	5	
0	0	0	0	0	506	495	0	504	38	5	
1	0	0	0	0	509	494	0	519	38	5	
2	0	0	0	0	507	493	0	521	38	6	
3	0	0	0	0	506	495	0	515	38	6	
4	0	0	0	0	510	495	0	507	38	6	
5	0	0	0	0	504	497	0	500	38	6	
6	0	0	0	0	505	498	0	495	38	6	
7	0	0	0	0	506	498	0	491	38	6	
8	0	0	0	0	509	501	0	488	38	5	
9	0	0	0	0	512	504	0	483	39	5	
10	0	0	0	0	502	513	0	495	38	6	
11	0	0	0	0	508	519	0	519	38	6	
12	0	0	0	0	510	517	0	527	38	6	
13	0	0	0	0	511	514	0	544	38	6	
14	0	0	0	0	508	511	0	545	38	6	
15	0	0	0	0	507	504	0	543	38	6	
0	0	0	0	0	509	499	0	532	38	5	
1	0	0	0	0	510	499	0	527	38	5	
2	0	0	0	0	510	500	0	507	38	6	
3	0	0	0	0	514	503	0	505	38	6	
4	0	0	0	0	502	505	0	487	38	6	
5	0	0	0	0	506	504	0	484	38	6	
6	0	0	0	0	497	505	0	480	38	6	
7	0	0	0	0	509	507	0	478	38	6	
8	0	0	0	0	505	509	0	472	38	5	
9	0	0	0	0	508	516	0	474	39	5	
10	0	0	0	0	511	517	0	469	38	5	
11	0	0	0	0	511	513	0	472	38	6	
12	0	0	0	0	505	509	0	468	38	6	
13	0	0	0	0	507	508	0	487	38	6	
14	0	0	0	0	506	508	0	505	38	6	
15	0	0	0	0	515	505	0	514	38	6	
0	0	0	0	0	508	503	0	528	38	6	
1	0	0	0	0	507	503	0	527	38	5	
2	0	0	0	0	508	508	0	532	38	5	
3	0	0	0	0	507	513	0	537	38	6	
4	0	0	0	0	510	515	0	525	38	6	
5	0	0	0	0	509	513	0	513	38	6	
6	0	0	0	0	502	512	0	523	38	6	
7	0	0	0	0	503	511	0	520	38	6	
8	0	0	0	0	500	508	0	509	38	6	
9	0	0	0	0	512	506	0	502	39	5	
10	0	0	0	0	510	507	0	501	38	5	
11	0	0	0	0	506	507	0	492	38	6	
12	0	0	0	0	507	507	0	483	38	6	
13	0	0	0	0	511	510	0	477	38	6	
14	0	0	0	0	509	515	0	473	38	6	
15	0	0	0	0	505	517	0	470	38	6	
0	0	0	0	0	503	513	0	481	38	6	
1	0	0	0	0	506	508	0	466	39	5	
2	0	0	0	0	509	507	0	467	38	5	
3	0	0	0	0	507	509	0	461	38	5	
4	0	0	0	0	510	511	0	461	38	6	
5	0	0	0	0	504	511	0	460	38	6	
6	0	0	0	0	504	509	0	458	39	6	
7	0	0	0	0	501	507	0	459	38	6	
8	0	0	0	0	510	505	0	464	38	6	
9	0	0	0	0	508	504	0	489	38	6	
10	0	0	0	0	507	507	0	501	38	5	
11	0	0	0	0	509	512	0	517	39	5	
12	0	0	0	0	510	521	0	530	38	6	
13	0	0	0	0	508	523	0	526	38	6	
14	0	0	0	0	508	519	0	517	38	6	
15	0	0	0	0	505	517	0	526	38	6	
0	0	0	0	0	512	515	0	523	38	6	
1	0	0	0	0	512	514	0	511	39	6	
2	0	0	0	0	513	514	0	497	38	5	
3	0	0	0	0	501	512	0	489	38	5	
4	0	0	0	0	505	508	0	481	38	6	
5	0	0	0	0	510	505	0	478	38	6	
6	0	0	0	0	513	502	0	473	38	6	
7	0	0	0	0	501	500	0	471	38	6	
8	0	0	0	0	505	500	0	473	38	6	
9	0	0	0	0	507	495	0	493	38	6	
10	0	0	0	0	514	493	0	508	38	5	
11	0	0	0	0	513	496	0	505	38	5	
12	0	0	0	0	504	498	0	504	38	5	
13	0	0	0	0	513	505	0	503	38	6	
14	0	0	0	0	505	512	0	496	38	6	
15	0	0	0	0	512	513	0	504	38	6	
0	0	0	0	0	509	514	0	517	38	6	
1	0	0	0	0	503	516	0	519	38	6	
2	0	0	0	0	510	518	0	533	38	6	
3	0	0	0	0	504	515	0	529	38	5	
4	0	0	0	0	508	510	0	515	38	5	
5	0	0	0	0	508	504	0	501	38	6	
6	0	0	0	0	503	496	0	491	38	6	
7	0	0	0	0	509	491	0	484	38	6	
8	0	0	0	0	509	494	0	498	38	6	
9	0	0	0	0	508	500	0	506	38	6	
10	0	0	0	0	499	504	0	502	38	6	
11	0	0	0	0	510	511	0	494	38	5	
12	0	0	0	0	508	514	0	487	38	5	
13	0	0	0	0	515	512	0	480	38	6	
14	0	0	0	0	507	507	0	475	38	6	
15	0	0	0	0	512	504	0	471	38	6	
0	0	0	0	0	504	501	0	468	38	6	
1	0	0	0	0	500	499	0	466	38	6	
2	0	0	0	0	504	501	0	488	38	6	
3	0	0	0	0	510	505	0	499	38	5	
4	0	0	0	0	508	510	0	499	38	5	
5	0	0	0	0	513	512	0	489	38	5	
6	0	0	0	0	500	512	0	485	38	6	
7	0	0	0	0	511	511	0	478	38	6	
8	0	0	0	0	508	510	0	491	38	6	
9	0	0	0	0	507	512	0	501	39	6	
10	0	0	0	0	509	509	0	501	38	6	
11	0	0	0	0	504	502	0	496	38	6	
12	0	0	0	0	512	500	0	496	38	5	
13	0	0	0	0	508	501	0	489	38	5	
14	0	0	0	0	507	504	0	482	38	6	
15	0	0	0	0	504	508	0	476	38	6	
0	0	0	0	0	507	510	0	473	38	6	
1	0	0	0	0	508	512	0	468	39	6	
2	0	0	0	0	502	512	0	462	38	6	
3	0	0	0	0	506	516	0	473	38	6	
4	0	0	0	0	502	516	0	496	38	5	
5	0	0	0	0	507	514	0	501	38	5	
6	0	0	0	0	510	511	0	496	38	5	
7	0	0	0	0	512	509	0	520	38	6	
8	0	0	0	0	513	510	0	515	38	6	
9	0	0	0	0	506	507	0	509	38	6	
10	0	0	0	0	504	502	0	498	38	6	
11	0	0	0	0	504	498	0	491	38	6	
12	0	0	0	0	507	500	0	480	38	5	
13	0	0	0	0	510	503	0	478	38	5	
14	0	0	0	0	507	500	0	472	38	5	
15	0	0	0	0	510	499	0	471	38	6	
0	0	0	0	0	510	503	0	464	38	6	
1	0	0	0	0	509	505	0	481	39	6	
2	0	0	0	0	510	508	0	504	38	6	
3	0	0	0	0	510	513	0	509	38	6	
4	0	0	0	0	508	517	0	502	38	5	
5	0	0	0	0	510	518	0	495	38	5	
6	0	0	0	0	508	516	0	489	38	5	
7	0	0	0	0	509	515	0	496	38	6	
8	0	0	0	0	503	512	0	510	38	6	
9	0	0	0	0	508	505	0	506	38	6	
10	0	0	0	0	499	509	0	499	39	6	
11	0	0	0	0	507	516	0	492	38	6	
12	0	0	0	0	505	521	0	497	38	6	
13	0	0	0	0	505	516	0	498	38	5	
14	0	0	0	0	509	511	0	496	38	5	
15	0	0	0	0	509	505	0	491	38	5	
0	0	0	0	0	511	497	0	487	38	6	
1	0	0	0	0	513	496	0	484	39	6	
2	0	0	0	0	502	497	0	483	38	6	
3	0	0	0	0	508	496	0	486	38	6	
4	0	0	0	0	514	494	0	514	38	6	
5	0	0	0	0	509	495	0	524	38	5	
6	0	0	0	0	503	499	0	526	38	5	
7	0	0	0	0	509	500	0	523	38	5	
8	0	0	0	0	503	502	0	539	38	6	
9	0	0	0	0	507	505	0	535	39	6	
10	0	0	0	0	513	509	0	524	38	6	
11	0	0	0	0	507	513	0	511	38	6	
12	0	0	0	0	507	515	0	503	38	6	
13	0	0	0	0	503	519	0	495	38	5	
14	0	0	0	0	503	517	0	489	38	5	
15	0	0	0	0	514	515	0	484	38	5	
0	0	0	0	0	513	518	0	481	38	6	
1	0	0	0	0	507	522	0	484	39	6	
2	0	0	0	0	506	525	0	508	38	6	
3	0	0	0	0	511	525	0	517	39	6	
4	0	0	0	0	511	524	0	513	38	6	
5	0	0	0	0	509	524	0	518	39	6	
6	0	0	0	0	512	524	0	515	38	5	
7	0	0	0	0	505	526	0	512	38	5	
8	0	0	0	0	508	525	0	528	38	6	
9	0	0	0	0	508	523	0	537	38	6	
10	0	0	0	0	506	521	0	529	38	6	
11	0	0	0	0	502	518	0	519	38	6	
12	0	0	0	0	505	515	0	509	38	6	
13	0	0	0	0	503	513	0	509	38	6	
14	0	0	0	0	509	510	0	500	38	5	
15	0	0	0	0	512	512	0	493	38	5	
0	0	0	0	0	505	514	0	487	38	5	
1	0	0	0	0	515	511	0	486	39	6	
2	0	0	0	0	501	505	0	505	38	6	
3	0	0	0	0	509	501	0	516	38	6	
4	0	0	0	0	506	500	0	512	38	6	
5	0	0	0	0	515	498	0	505	38	6	
6	0	0	0	0	510	498	0	499	38	6	
7	0	0	0	0	508	496	0	492	38	5	
8	0	0	0	0	510	493	0	484	39	5	
9	0	0	0	0	508	490	0	493	38	6	
10	0	0	0	0	515	487	0	513	38	6	
11	0	0	0	0	505	485	0	519	38	6	
12	0	0	0	0	504	485	0	509	38	6	
13	0	0	0	0	505	485	0	499	38	6	
14	0	0	0	0	505	482	0	489	38	6	
15	0	0	0	0	505	484	0	490	38	5	
0	0	0	0	0	511	490	0	505	38	5	
1	0	0	0	0	505	495	0	508	39	5	
2	0	0	0	0	508	500	0	500	38	6	
3	0	0	0	0	512	504	0	492	38	6	
4	0	0	0	0	512	507	0	486	38	6	
5	0	0	0	0	507	507	0	482	38	6	
6	0	0	0	0	507	505	0	480	38	6	
7	0	0	0	0	507	505	0	478	38	5	
8	0	0	0	0	503	509	0	475	38	5	
9	0	0	0	0	507	510	0	478	39	5	
10	0	0	0	0	507	508	0	504	38	6	
11	0	0	0	0	504	508	0	511	38	6	
12	0	0	0	0	506	511	0	507	38	6	
13	0	0	0	0	504	511	0	497	38	6	
14	0	0	0	0	509	509	0	497	38	6	
15	0	0	0	0	505	509	0	498	38	6	
0	0	0	0	0	512	508	0	493	38	5	
1	0	0	0	0	508	509	0	504	38	5	
2	0	0	0	0	514	509	0	534	38	6	
3	0	0	0	0	509	506	0	518	38	6	
4	0	0	0	0	505	504	0	511	38	6	
5	0	0	0	0	500	508	0	496	38	6	
6	0	0	0	0	510	514	0	487	38	6	
7	0	0	0	0	506	519	0	478	38	6	
8	0	0	0	0	508	519	0	482	38	5	
9	0	0	0	0	509	516	0	499	38	5	
10	0	0	0	0	518	512	0	504	38	6	
11	0	0	0	0	506	507	0	495	38	6	
12	0	0	0	0	509	503	0	491	38	6	
13	0	0	0	0	500	501	0	483	38	6	
14	0	0	0	0	504	502	0	483	38	6	
15	0	0	0	0	507	502	0	476	38	6	
0	0	0	0	0	503	498	0	472	38	5	
1	0	0	0	0	513	496	0	470	38	5	
2	0	0	0	0	506	500	0	466	38	5	
3	0	0	0	0	510	504	0	465	38	6	
4	0	0	0	0	507	503	0	463	38	6	
5	0	0	0	0	507	502	0	460	38	6	
6	0	0	0	0	508	508	0	460	38	6	
7	0	0	0	0	515	512	0	459	38	6	
8	0	0	0	0	505	515	0	457	38	6	
9	0	0	0	0	505	517	0	452	39	5	
10	0	0	0	0	508	520	0	449	38	5	
11	0	0	0	0	508	525	0	452	38	6	
12	0	0	0	0	510	529	0	454	38	6	
13	0	0	0	0	506	533	0	456	38	6	
14	0	0	0	0	505	538	0	456	38	6	
15	0	0	0	0	503	539	0	456	38	6	
0	0	0	0	0	507	539	0	455	38	6	
1	0	0	0	0	511	536	0	451	39	5	
2	0	0	0	0	507	533	0	453	38	5	
3	0	0	0	0	506	532	0	457	38	6	
4	0	0	0	0	506	527	0	457	38	6	
5	0	0	0	0	512	523	0	461	38	6	
6	0	0	0	0	510	523	0	462	38	6	
7	0	0	0	0	505	525	0	465	38	6	
8	0	0	0	0	507	529	0	461	38	6	
9	0	0	0	0	509	531	0	464	38	5	
10	0	0	0	0	508	530	0	460	38	5	
11	0	0	0	0	507	528	0	463	38	5	
12	0	0	0	0	510	526	0	463	38	6	
13	0	0	0	0	508	521	0	466	38	6	
14	0	0	0	0	512	515	0	461	38	6	
15	0	0	0	0	494	517	0	478	38	6	
0	0	0	0	0	504	519	0	495	38	6	
1	0	0	0	0	510	519	0	501	39	6	
2	0	0	0	0	509	516	0	517	38	5	
3	0	0	0	0	507	512	0	526	38	5	
4	0	0	0	0	508	513	0	513	38	6	
5	0	0	0	0	511	513	0	502	38	6	
6	0	0	0	0	508	514	0	491	38	6	
7	0	0	0	0	503	512	0	504	38	6	
8	0	0	0	0	511	512	0	504	38	6	
9	0	0	0	0	510	513	0	511	39	6	
10	0	0	0	0	511	514	0	523	38	5	
11	0	0	0	0	507	518	0	524	38	5	
12	0	0	0	0	511	520	0	533	38	6	
13	0	0	0	0	501	519	0	537	38	6	
14	0	0	0	0	507	518	0	535	39	6	
15	0	0	0	0	506	513	0	541	38	6	
0	0	0	0	0	514	507	0	530	38	6	
1	0	0	0	0	505	499	0	535	38	6	
2	0	0	0	0	504	493	0	535	38	5	
3	0	0	0	0	507	490	0	535	38	5	
4	0	0	0	0	503	490	0	538	38	5	
5	0	0	0	0	506	492	0	531	38	6	
6	0	0	0	0	510	492	0	536	38	6	
7	0	0	0	0	514	492	0	531	38	6	
8	0	0	0	0	507	495	0	515	38	6	
9	0	0	0	0	508	500	0	497	38	6	
10	0	0	0	0	507	504	0	484	38	6	
11	0	0	0	0	508	507	0	473	38	5	
12	0	0	0	0	508	509	0	466	38	5	
13	0	0	0	0	505	512	0	463	38	6	
14	0	0	0	0	504	512	0	457	38	6	
15	0	0	0	0	498	511	0	455	38	6	
0	0	0	0	0	507	511	0	453	38	6	
1	0	0	0	0	508	511	0	448	38	6	
2	0	0	0	0	507	509	0	447	38	6	
3	0	0	0	0	517	506	0	446	38	5	
4	0	0	0	0	508	504	0	450	38	5	
5	0	0	0	0	512	502	0	472	38	6	
6	0	0	0	0	512	500	0	488	38	6	
7	0	0	0	0	510	498	0	499	38	6	
8	0	0	0	0	508	494	0	511	38	6	
9	0	0	0	0	504	495	0	503	38	6	
10	0	0	0	0	510	497	0	491	38	6	
11	0	0	0	0	510	498	0	489	38	5	
12	0	0	0	0	502	500	0	483	38	5	
13	0	0	0	0	500	500	0	474	38	5	
14	0	0	0	0	510	499	0	467	38	6	
15	0	0	0	0	505	498	0	461	38	6	
0	0	0	0	0	509	497	0	457	38	6	
1	0	0	0	0	499	499	0	455	38	6	
2	0	0	0	0	515	499	0	461	38	6	
3	0	0	0	0	510	496	0	486	38	6	
4	0	0	0	0	504	494	0	498	38	5	
5	0	0	0	0	515	491	0	494	38	5	
6	0	0	0	0	509	488	0	487	38	6	
7	0	0	0	0	510	489	0	478	38	6	
8	0	0	0	0	502	487	0	476	38	6	
9	0	0	0	0	517	481	0	489	39	6	
10	0	0	0	0	505	479	0	497	38	6	
11	0	0	0	0	505	481	0	490	38	6	
12	0	0	0	0	507	483	0	484	38	5	
13	0	0	0	0	508	483	0	476	38	5	
14	0	0	0	0	509	480	0	470	38	6	
15	0	0	0	0	516	478	0	466	39	6	
0	0	0	0	0	509	479	0	472	38	6	
1	0	0	0	0	503	480	0	487	39	6	
2	0	0	0	0	508	484	0	489	38	6	
3	0	0	0	0	503	493	0	484	38	6	
4	0	0	0	0	509	500	0	489	38	5	
5	0	0	0	0	511	507	0	473	38	5	
6	0	0	0	0	508	510	0	472	38	5	
7	0	0	0	0	504	511	0	469	38	6	
8	0	0	0	0	508	511	0	470	38	6	
9	0	0	0	0	513	511	0	464	39	6	
10	0	0	0	0	509	510	0	479	38	6	
11	0	0	0	0	505	506	0	499	38	6	
12	0	0	0	0	502	499	0	504	38	5	
13	0	0	0	0	512	493	0	500	38	5	
14	0	0	0	0	508	489	0	509	38	5	
15	0	0	0	0	507	493	0	518	38	6	
0	0	0	0	0	512	498	0	516	38	6	
1	0	0	0	0	507	499	0	515	39	6	
2	0	0	0	0	506	494	0	506	38	6	
3	0	0	0	0	504	492	0	495	38	6	
4	0	0	0	0	501	489	0	486	38	6	
5	0	0	0	0	505	482	0	481	38	5	
6	0	0	0	0	505	479	0	479	38	5	
7	0	0	0	0	509	480	0	475	38	6	
8	0	0	0	0	513	482	0	471	38	6	
9	0	0	0	0	505	485	0	472	38	6	
10	0	0	0	0	504	486	0	471	38	6	
11	0	0	0	0	510	491	0	472	38	6	
12	0	0	0	0	504	493	0	472	38	6	
13	0	0	0	0	514	492	0	476	38	5	
14	0	0	0	0	507	489	0	485	38	5	
15	0	0	0	0	510	483	0	508	38	5	
0	0	0	0	0	512	486	0	513	38	6	
1	0	0	0	0	504	492	0	531	38	6	
2	0	0	0	0	506	496	0	537	38	6	
3	0	0	0	0	500	498	0	544	38	6	
4	0	0	0	0	508	502	0	554	38	6	
5	0	0	0	0	503	507	0	550	38	5	
6	0	0	0	0	510	508	0	556	38	5	
7	0	0	0	0	506	507	0	550	38	5	
8	0	0	0	0	518	505	0	529	38	6	
9	0	0	0	0	510	504	0	522	39	6	
10	0	0	0	0	505	508	0	513	38	6	
11	0	0	0	0	505	515	0	506	38	6	
12	0	0	0	0	503	521	0	494	38	6	
13	0	0	0	0	510	525	0	489	38	6	
14	0	0	0	0	512	526	0	484	38	5	
15	0	0	0	0	507	529	0	484	38	5	
0	0	0	0	0	504	533	0	481	38	5	
1	0	0	0	0	503	537	0	479	38	6	
2	0	0	0	0	503	543	0	479	38	6	
3	0	0	0	0	508	547	0	476	38	6	
4	0	0	0	0	509	549	0	481	38	6	
5	0	0	0	0	504	548	0	504	38	6	
6	0	0	0	0	516	547	0	521	38	5	
7	0	0	0	0	508	549	0	532	38	5	
8	0	0	0	0	513	551	0	546	38	5	
9	0	0	0	0	509	556	0	543	38	6	
10	0	0	0	0	505	556	0	555	38	6	
11	0	0	0	0	511	559	0	555	38	6	
12	0	0	0	0	506	567	0	542	38	6	
13	0	0	0	0	507	578	0	526	38	6	
14	0	0	0	0	504	591	0	514	38	5	
15	0	0	0	0	513	601	0	502	38	5	
0	0	0	0	0	516	609	0	495	39	5	
1	0	0	0	0	505	615	0	504	38	6	
2	0	0	0	0	502	624	0	525	38	6	
3	0	0	0	0	507	631	0	529	39	6	
4	0	0	0	0	504	635	0	523	38	6	
5	0	0	0	0	508	638	0	513	38	6	
6	0	0	0	0	506	642	0	504	38	6	
7	0	0	0	0	507	642	0	507	38	5	
8	0	0	0	0	508	634	0	519	38	5	
9	0	0	0	0	505	622	0	521	38	5	
10	0	0	0	0	508	607	0	512	38	6	
11	0	0	0	0	508	592	0	515	38	6	
12	0	0	0	0	507	581	0	513	38	6	
13	0	0	0	0	508	575	0	508	38	6	
14	0	0	0	0	509	570	0	503	38	6	
15	0	0	0	0	508	560	0	496	38	5	
0	0	0	0	0	504	551	0	494	38	5	
1	0	0	0	0	504	538	0	490	38	5	
2	0	0	0	0	507	528	0	491	38	6	
3	0	0	0	0	503	522	0	514	38	6	
4	0	0	0	0	507	516	0	527	38	6	
5	0	0	0	0	502	507	0	524	38	6	
6	0	0	0	0	507	496	0	524	38	6	
