# OpenSignals Text File Format. Version 1
# {"98:D3:61:FD:78:31": {"position": 0, "device": "bitalino_rev", "device name": "98:D3:61:FD:78:31", "device connection": "BTH98:D3:61:FD:78:31", "sampling rate": 1000, "resolution": [4, 1, 1, 1, 1, 10, 10, 10, 10, 6, 6], "firmware version": 1282, "comments": "", "keywords": "", "mode": 0, "sync interval": 2, "date": "2024-4-19", "time": "9:13:29.458", "channels": [1, 2, 3, 4, 5, 6], "sensor": ["RAW", "ECGBIT", "RAW", "RAW", "RAW", "RAW"], "label": ["A1", "A2", "A3", "A4", "A5", "A6"], "column": ["nSeq", "I1", "I2", "O1", "O2", "A1", "A2", "A3", "A4", "A5", "A6"], "special": [{}, {}, {}, {}, {}, {}], "digital IO": [0, 0, 1, 1], "convertedValues": 0}}
# EndOfHeader
0	0	0	0	0	510	473	0	837	38	13	
1	0	0	0	0	510	472	0	751	38	12	
2	0	0	0	0	507	472	0	608	38	12	
3	0	0	0	0	506	472	0	433	38	13	
4	0	0	0	0	505	472	0	215	38	13	
5	0	0	0	0	505	473	0	25	38	13	
6	0	0	0	0	510	473	0	0	38	13	
7	0	0	0	0	518	473	0	0	38	13	
8	0	0	0	0	508	475	0	0	38	13	
9	0	0	0	0	503	475	0	0	38	12	
10	0	0	0	0	508	475	0	0	38	12	
11	0	0	0	0	511	475	0	0	38	13	
12	0	0	0	0	511	475	0	0	38	13	
13	0	0	0	0	509	475	0	0	38	13	
14	0	0	0	0	508	474	0	0	38	13	
15	0	0	0	0	503	475	0	0	38	13	
0	0	0	0	0	513	476	0	0	38	13	
1	0	0	0	0	509	477	0	0	38	12	
2	0	0	0	0	508	477	0	0	38	12	
3	0	0	0	0	512	476	0	0	38	13	
4	0	0	0	0	508	476	0	0	38	13	
5	0	0	0	0	504	477	0	0	38	13	
6	0	0	0	0	507	477	0	0	38	13	
7	0	0	0	0	510	477	0	0	38	13	
8	0	0	0	0	507	476	0	0	38	13	
9	0	0	0	0	512	478	0	0	38	13	
10	0	0	0	0	507	480	0	0	38	12	
11	0	0	0	0	514	481	0	0	38	12	
12	0	0	0	0	507	483	0	0	38	13	
13	0	0	0	0	508	483	0	0	38	13	
14	0	0	0	0	505	483	0	0	38	13	
15	0	0	0	0	504	483	0	0	38	13	
0	0	0	0	0	504	484	0	0	38	13	
1	0	0	0	0	505	484	0	0	38	13	
2	0	0	0	0	511	485	0	0	38	12	
3	0	0	0	0	516	486	0	0	38	12	
4	0	0	0	0	509	486	0	0	38	13	
5	0	0	0	0	508	484	0	0	38	13	
6	0	0	0	0	510	484	0	0	38	13	
7	0	0	0	0	509	483	0	0	38	13	
8	0	0	0	0	504	484	0	0	38	13	
9	0	0	0	0	512	483	0	0	38	13	
10	0	0	0	0	505	483	0	0	38	12	
11	0	0	0	0	512	484	0	0	38	12	
12	0	0	0	0	514	484	0	0	38	13	
13	0	0	0	0	514	484	0	0	38	13	
14	0	0	0	0	506	483	0	0	38	13	
15	0	0	0	0	500	483	0	0	38	13	
0	0	0	0	0	510	483	0	0	38	13	
1	0	0	0	0	510	483	0	0	38	13	
2	0	0	0	0	512	483	0	0	38	12	
3	0	0	0	0	508	483	0	0	38	12	
4	0	0	0	0	511	483	0	0	38	12	
5	0	0	0	0	508	484	0	0	38	13	
6	0	0	0	0	512	485	0	0	38	13	
7	0	0	0	0	508	484	0	0	38	13	
8	0	0	0	0	513	484	0	0	38	13	
9	0	0	0	0	506	486	0	0	38	13	
10	0	0	0	0	508	486	0	0	38	13	
11	0	0	0	0	514	485	0	0	37	12	
12	0	0	0	0	507	486	0	0	38	12	
13	0	0	0	0	506	485	0	0	38	13	
14	0	0	0	0	507	485	0	0	38	13	
15	0	0	0	0	511	486	0	0	38	13	
0	0	0	0	0	512	487	0	0	38	13	
1	0	0	0	0	509	487	0	0	38	13	
2	0	0	0	0	508	487	0	0	38	13	
3	0	0	0	0	507	487	0	0	37	12	
4	0	0	0	0	515	489	0	0	38	12	
5	0	0	0	0	510	489	0	0	38	13	
6	0	0	0	0	507	491	0	0	38	13	
7	0	0	0	0	509	489	0	0	38	13	
8	0	0	0	0	505	489	0	0	38	13	
9	0	0	0	0	513	489	0	0	38	13	
10	0	0	0	0	507	488	0	0	38	13	
11	0	0	0	0	506	489	0	0	37	13	
12	0	0	0	0	511	492	0	0	38	12	
13	0	0	0	0	503	492	0	0	38	12	
14	0	0	0	0	503	491	0	0	38	13	
15	0	0	0	0	510	491	0	0	38	13	
0	0	0	0	0	510	491	0	0	38	13	
1	0	0	0	0	500	491	0	0	38	13	
2	0	0	0	0	508	492	0	0	38	13	
3	0	0	0	0	510	492	0	0	38	13	
4	0	0	0	0	507	492	0	0	38	12	
5	0	0	0	0	512	493	0	0	38	12	
6	0	0	0	0	511	492	0	0	38	13	
7	0	0	0	0	511	492	0	0	38	13	
8	0	0	0	0	513	492	0	0	38	13	
9	0	0	0	0	511	492	0	0	38	13	
10	0	0	0	0	512	491	0	0	38	13	
11	0	0	0	0	503	489	0	0	38	13	
12	0	0	0	0	508	489	0	0	38	12	
13	0	0	0	0	504	490	0	0	38	12	
14	0	0	0	0	505	492	0	0	38	13	
15	0	0	0	0	510	495	0	0	38	13	
0	0	0	0	0	509	495	0	0	38	13	
1	0	0	0	0	508	495	0	0	38	13	
2	0	0	0	0	510	495	0	0	38	13	
3	0	0	0	0	512	496	0	0	38	13	
4	0	0	0	0	505	495	0	0	38	13	
5	0	0	0	0	507	494	0	0	38	12	
6	0	0	0	0	510	494	0	0	38	12	
7	0	0	0	0	509	494	0	0	38	13	
8	0	0	0	0	513	493	0	111	38	13	
9	0	0	0	0	507	494	0	265	38	13	
10	0	0	0	0	515	494	0	387	38	13	
11	0	0	0	0	507	494	0	479	38	13	
12	0	0	0	0	501	494	0	556	38	13	
13	0	0	0	0	506	495	0	569	38	12	
14	0	0	0	0	516	495	0	522	38	12	
15	0	0	0	0	513	496	0	429	38	13	
0	0	0	0	0	503	496	0	299	38	13	
1	0	0	0	0	508	497	0	206	38	13	
2	0	0	0	0	503	496	0	183	38	13	
3	0	0	0	0	507	496	0	179	37	13	
4	0	0	0	0	508	497	0	195	38	13	
5	0	0	0	0	507	498	0	228	38	12	
6	0	0	0	0	512	498	0	311	38	12	
7	0	0	0	0	507	499	0	305	38	13	
8	0	0	0	0	505	498	0	288	38	13	
9	0	0	0	0	516	498	0	255	38	13	
10	0	0	0	0	510	499	0	192	38	13	
11	0	0	0	0	511	501	0	181	37	13	
12	0	0	0	0	508	503	0	208	38	13	
13	0	0	0	0	507	503	0	227	38	13	
14	0	0	0	0	504	503	0	227	38	12	
15	0	0	0	0	504	502	0	291	38	12	
0	0	0	0	0	500	499	0	366	38	13	
1	0	0	0	0	510	498	0	420	38	13	
2	0	0	0	0	508	499	0	496	38	13	
3	0	0	0	0	509	498	0	574	37	13	
4	0	0	0	0	511	499	0	665	38	13	
5	0	0	0	0	510	499	0	745	38	13	
6	0	0	0	0	508	499	0	792	38	12	
7	0	0	0	0	510	500	0	885	38	12	
8	0	0	0	0	505	501	0	939	38	13	
9	0	0	0	0	510	502	0	871	38	13	
10	0	0	0	0	508	503	0	781	38	13	
11	0	0	0	0	516	504	0	652	38	13	
12	0	0	0	0	507	503	0	520	38	13	
13	0	0	0	0	511	504	0	400	38	13	
14	0	0	0	0	505	503	0	342	38	12	
15	0	0	0	0	508	503	0	325	38	12	
0	0	0	0	0	510	504	0	283	38	12	
1	0	0	0	0	510	503	0	281	38	13	
2	0	0	0	0	507	504	0	385	38	13	
3	0	0	0	0	514	506	0	563	38	13	
4	0	0	0	0	508	507	0	767	38	13	
5	0	0	0	0	508	507	0	896	38	13	
6	0	0	0	0	507	507	0	985	38	13	
7	0	0	0	0	510	507	0	1018	38	12	
8	0	0	0	0	514	507	0	1018	38	12	
9	0	0	0	0	507	507	0	1018	38	13	
10	0	0	0	0	509	507	0	1018	38	13	
11	0	0	0	0	500	508	0	1018	38	13	
12	0	0	0	0	510	508	0	1018	38	13	
13	0	0	0	0	507	508	0	1018	38	13	
14	0	0	0	0	508	508	0	1018	38	13	
15	0	0	0	0	509	509	0	1018	38	12	
0	0	0	0	0	510	509	0	1018	38	12	
1	0	0	0	0	515	511	0	1018	38	13	
2	0	0	0	0	507	512	0	1018	38	13	
3	0	0	0	0	512	513	0	1018	38	13	
4	0	0	0	0	509	512	0	1018	38	13	
5	0	0	0	0	514	514	0	1018	38	13	
6	0	0	0	0	512	515	0	1018	38	13	
7	0	0	0	0	508	514	0	897	38	12	
8	0	0	0	0	507	515	0	841	38	12	
9	0	0	0	0	502	516	0	838	38	12	
10	0	0	0	0	504	516	0	853	38	13	
11	0	0	0	0	504	515	0	857	38	13	
12	0	0	0	0	504	513	0	840	38	13	
13	0	0	0	0	505	514	0	819	38	13	
14	0	0	0	0	513	517	0	758	38	13	
15	0	0	0	0	514	517	0	620	38	12	
0	0	0	0	0	513	515	0	499	38	12	
1	0	0	0	0	508	515	0	434	38	12	
2	0	0	0	0	504	515	0	407	38	13	
3	0	0	0	0	509	515	0	365	38	13	
4	0	0	0	0	513	515	0	328	38	13	
5	0	0	0	0	509	518	0	330	38	13	
6	0	0	0	0	507	519	0	367	38	13	
7	0	0	0	0	506	518	0	430	38	12	
8	0	0	0	0	514	519	0	507	38	12	
9	0	0	0	0	511	520	0	550	38	12	
10	0	0	0	0	511	519	0	568	38	12	
11	0	0	0	0	510	517	0	564	38	13	
12	0	0	0	0	517	516	0	548	38	13	
13	0	0	0	0	507	514	0	531	38	13	
14	0	0	0	0	508	514	0	483	38	13	
15	0	0	0	0	507	513	0	443	38	12	
0	0	0	0	0	511	515	0	409	38	12	
1	0	0	0	0	510	515	0	455	38	12	
2	0	0	0	0	505	517	0	572	38	12	
3	0	0	0	0	508	517	0	686	38	13	
4	0	0	0	0	514	516	0	842	38	13	
5	0	0	0	0	509	518	0	939	38	13	
6	0	0	0	0	506	517	0	994	38	13	
7	0	0	0	0	507	517	0	981	38	13	
8	0	0	0	0	509	516	0	960	38	12	
9	0	0	0	0	511	515	0	932	38	12	
10	0	0	0	0	513	516	0	909	38	12	
11	0	0	0	0	508	517	0	926	38	13	
12	0	0	0	0	509	517	0	966	38	13	
13	0	0	0	0	510	519	0	972	38	13	
14	0	0	0	0	508	518	0	946	38	13	
15	0	0	0	0	500	515	0	849	38	13	
0	0	0	0	0	508	515	0	652	38	12	
1	0	0	0	0	503	514	0	484	38	12	
2	0	0	0	0	511	513	0	312	38	12	
3	0	0	0	0	506	512	0	195	38	12	
4	0	0	0	0	512	514	0	100	38	12	
5	0	0	0	0	510	516	0	0	38	13	
6	0	0	0	0	509	516	0	0	38	13	
7	0	0	0	0	506	515	0	0	38	13	
8	0	0	0	0	507	514	0	0	38	12	
9	0	0	0	0	512	513	0	0	38	12	
10	0	0	0	0	508	512	0	0	38	12	
11	0	0	0	0	512	511	0	0	38	12	
12	0	0	0	0	512	510	0	106	38	12	
13	0	0	0	0	504	510	0	262	38	13	
14	0	0	0	0	509	511	0	424	38	13	
15	0	0	0	0	504	510	0	585	38	13	
0	0	0	0	0	506	507	0	652	38	13	
1	0	0	0	0	508	505	0	526	38	12	
2	0	0	0	0	510	503	0	313	38	12	
3	0	0	0	0	506	502	0	139	38	12	
4	0	0	0	0	503	501	0	27	38	13	
5	0	0	0	0	514	502	0	0	38	13	
6	0	0	0	0	505	502	0	0	38	13	
7	0	0	0	0	505	501	0	0	38	13	
8	0	0	0	0	507	501	0	0	38	13	
9	0	0	0	0	512	501	0	0	38	12	
10	0	0	0	0	512	502	0	0	38	12	
11	0	0	0	0	512	503	0	0	38	12	
12	0	0	0	0	508	502	0	0	38	12	
13	0	0	0	0	505	501	0	0	38	12	
14	0	0	0	0	514	499	0	0	38	13	
15	0	0	0	0	509	499	0	0	38	13	
0	0	0	0	0	510	499	0	0	38	13	
1	0	0	0	0	512	497	0	0	38	12	
2	0	0	0	0	504	496	0	0	38	12	
3	0	0	0	0	512	495	0	137	38	12	
4	0	0	0	0	514	496	0	229	38	12	
5	0	0	0	0	507	495	0	257	38	12	
6	0	0	0	0	511	493	0	230	38	13	
7	0	0	0	0	507	494	0	179	38	13	
8	0	0	0	0	516	495	0	163	38	13	
9	0	0	0	0	506	495	0	174	38	12	
10	0	0	0	0	505	496	0	196	38	12	
11	0	0	0	0	500	496	0	275	38	12	
12	0	0	0	0	506	494	0	336	38	12	
13	0	0	0	0	507	496	0	283	38	12	
14	0	0	0	0	511	495	0	193	38	12	
15	0	0	0	0	507	495	0	201	38	13	
0	0	0	0	0	515	494	0	263	38	13	
1	0	0	0	0	508	495	0	333	38	13	
2	0	0	0	0	510	496	0	394	38	12	
3	0	0	0	0	510	496	0	445	38	12	
4	0	0	0	0	504	495	0	476	38	12	
5	0	0	0	0	512	496	0	515	38	12	
6	0	0	0	0	507	497	0	595	38	12	
7	0	0	0	0	508	498	0	762	38	13	
8	0	0	0	0	508	498	0	921	38	13	
9	0	0	0	0	511	498	0	1018	38	13	
10	0	0	0	0	500	498	0	1018	38	12	
11	0	0	0	0	506	497	0	1018	38	12	
12	0	0	0	0	507	496	0	1018	38	12	
13	0	0	0	0	510	498	0	1018	38	12	
14	0	0	0	0	515	500	0	920	38	12	
15	0	0	0	0	506	500	0	843	38	12	
0	0	0	0	0	511	501	0	785	38	13	
1	0	0	0	0	509	502	0	679	38	13	
2	0	0	0	0	504	503	0	532	38	12	
3	0	0	0	0	511	504	0	402	38	12	
4	0	0	0	0	509	507	0	313	38	12	
5	0	0	0	0	509	508	0	275	38	12	
6	0	0	0	0	502	506	0	326	38	13	
7	0	0	0	0	511	505	0	439	38	12	
8	0	0	0	0	513	505	0	576	38	13	
9	0	0	0	0	507	504	0	738	38	13	
10	0	0	0	0	509	503	0	874	38	13	
11	0	0	0	0	516	501	0	972	38	12	
12	0	0	0	0	508	499	0	1017	38	12	
13	0	0	0	0	512	497	0	1018	38	12	
14	0	0	0	0	509	496	0	1018	38	12	
15	0	0	0	0	507	493	0	1017	38	12	
0	0	0	0	0	509	489	0	913	38	13	
1	0	0	0	0	508	489	0	872	38	13	
2	0	0	0	0	510	488	0	876	38	13	
3	0	0	0	0	511	486	0	874	38	12	
4	0	0	0	0	511	484	0	836	38	12	
5	0	0	0	0	511	484	0	828	38	12	
6	0	0	0	0	510	487	0	854	38	12	
7	0	0	0	0	509	493	0	932	38	12	
8	0	0	0	0	510	499	0	1017	38	13	
9	0	0	0	0	504	502	0	1018	38	13	
10	0	0	0	0	504	505	0	1018	38	13	
11	0	0	0	0	513	511	0	1018	38	12	
12	0	0	0	0	514	518	0	937	38	12	
13	0	0	0	0	511	525	0	889	38	12	
14	0	0	0	0	506	531	0	908	38	12	
15	0	0	0	0	503	536	0	988	38	12	
0	0	0	0	0	509	543	0	1018	38	12	
1	0	0	0	0	511	552	0	1018	38	13	
2	0	0	0	0	509	563	0	1018	38	13	
3	0	0	0	0	514	569	0	1018	38	13	
4	0	0	0	0	506	572	0	1018	38	12	
5	0	0	0	0	509	575	0	1018	38	12	
6	0	0	0	0	510	577	0	1018	38	12	
7	0	0	0	0	505	577	0	1018	38	12	
8	0	0	0	0	507	578	0	1018	38	12	
9	0	0	0	0	517	576	0	1018	38	13	
10	0	0	0	0	511	576	0	1018	38	13	
11	0	0	0	0	507	579	0	1018	38	13	
12	0	0	0	0	497	581	0	1017	38	12	
13	0	0	0	0	507	582	0	885	38	12	
14	0	0	0	0	508	584	0	827	38	12	
15	0	0	0	0	505	584	0	765	38	12	
0	0	0	0	0	515	582	0	754	38	12	
1	0	0	0	0	505	579	0	772	38	13	
2	0	0	0	0	512	574	0	803	38	13	
3	0	0	0	0	512	564	0	794	38	13	
4	0	0	0	0	512	551	0	739	38	13	
5	0	0	0	0	514	540	0	760	38	12	
6	0	0	0	0	507	527	0	839	38	12	
7	0	0	0	0	510	514	0	918	38	12	
8	0	0	0	0	506	502	0	1016	38	13	
9	0	0	0	0	516	489	0	1018	38	13	
10	0	0	0	0	507	481	0	1018	38	13	
11	0	0	0	0	500	476	0	1018	38	13	
12	0	0	0	0	508	472	0	1017	38	13	
13	0	0	0	0	506	470	0	887	38	12	
14	0	0	0	0	513	467	0	751	38	12	
15	0	0	0	0	507	464	0	581	38	12	
0	0	0	0	0	502	463	0	432	38	12	
1	0	0	0	0	506	460	0	387	38	12	
2	0	0	0	0	506	459	0	431	38	13	
3	0	0	0	0	514	458	0	479	38	13	
4	0	0	0	0	513	458	0	545	38	13	
5	0	0	0	0	510	458	0	662	38	12	
6	0	0	0	0	511	458	0	758	38	12	
7	0	0	0	0	511	458	0	814	38	12	
8	0	0	0	0	512	460	0	827	38	12	
9	0	0	0	0	505	461	0	822	38	12	
10	0	0	0	0	503	461	0	868	38	13	
11	0	0	0	0	508	463	0	939	38	13	
12	0	0	0	0	505	465	0	920	38	13	
13	0	0	0	0	513	468	0	786	38	13	
14	0	0	0	0	511	471	0	673	38	12	
15	0	0	0	0	508	472	0	590	38	12	
0	0	0	0	0	515	472	0	536	38	12	
1	0	0	0	0	505	471	0	513	38	12	
2	0	0	0	0	507	474	0	423	38	13	
3	0	0	0	0	502	476	0	323	38	13	
4	0	0	0	0	511	476	0	283	38	13	
5	0	0	0	0	505	477	0	319	38	13	
6	0	0	0	0	511	479	0	371	38	13	
7	0	0	0	0	509	481	0	408	38	12	
8	0	0	0	0	508	483	0	478	38	12	
9	0	0	0	0	508	484	0	513	38	12	
10	0	0	0	0	512	485	0	562	38	12	
11	0	0	0	0	516	486	0	616	38	13	
12	0	0	0	0	511	488	0	726	38	13	
13	0	0	0	0	511	491	0	842	38	13	
14	0	0	0	0	505	496	0	958	38	13	
15	0	0	0	0	512	497	0	1017	38	12	
0	0	0	0	0	510	497	0	1018	38	12	
1	0	0	0	0	508	497	0	1018	38	12	
2	0	0	0	0	505	497	0	1018	38	12	
3	0	0	0	0	509	499	0	1018	38	13	
4	0	0	0	0	505	500	0	1018	38	13	
5	0	0	0	0	509	502	0	1018	38	13	
6	0	0	0	0	513	501	0	1017	38	13	
7	0	0	0	0	510	504	0	671	38	12	
8	0	0	0	0	510	506	0	459	38	12	
9	0	0	0	0	506	508	0	322	38	12	
10	0	0	0	0	513	512	0	249	38	13	
11	0	0	0	0	509	518	0	223	38	13	
12	0	0	0	0	512	517	0	201	38	13	
13	0	0	0	0	508	511	0	199	38	13	
14	0	0	0	0	512	508	0	223	38	13	
15	0	0	0	0	506	507	0	359	38	12	
0	0	0	0	0	503	508	0	536	38	12	
1	0	0	0	0	508	511	0	711	38	12	
2	0	0	0	0	504	513	0	867	38	12	
3	0	0	0	0	506	513	0	1013	38	12	
4	0	0	0	0	510	511	0	1018	38	13	
5	0	0	0	0	510	508	0	1018	38	13	
6	0	0	0	0	504	507	0	1018	38	13	
7	0	0	0	0	505	508	0	1018	38	13	
8	0	0	0	0	505	511	0	1018	38	12	
9	0	0	0	0	510	514	0	1018	38	12	
10	0	0	0	0	512	516	0	1018	38	12	
11	0	0	0	0	515	517	0	1018	38	12	
12	0	0	0	0	511	517	0	1018	38	13	
13	0	0	0	0	511	517	0	1018	38	13	
14	0	0	0	0	512	518	0	1018	38	13	
15	0	0	0	0	505	521	0	1018	38	13	
0	0	0	0	0	508	522	0	1018	38	12	
1	0	0	0	0	505	520	0	1018	38	12	
2	0	0	0	0	510	519	0	1018	38	12	
3	0	0	0	0	513	518	0	1018	38	12	
4	0	0	0	0	504	517	0	1018	38	12	
5	0	0	0	0	505	518	0	1018	38	13	
6	0	0	0	0	512	519	0	1018	38	13	
7	0	0	0	0	509	519	0	1018	38	13	
8	0	0	0	0	508	518	0	1018	38	12	
9	0	0	0	0	505	520	0	1018	38	12	
10	0	0	0	0	508	525	0	1018	38	12	
11	0	0	0	0	512	529	0	727	38	12	
12	0	0	0	0	511	527	0	498	38	12	
13	0	0	0	0	504	525	0	307	38	13	
14	0	0	0	0	506	525	0	152	38	13	
15	0	0	0	0	505	525	0	105	38	13	
0	0	0	0	0	509	524	0	151	38	12	
1	0	0	0	0	515	523	0	248	38	12	
2	0	0	0	0	508	521	0	389	38	12	
3	0	0	0	0	504	519	0	504	38	12	
4	0	0	0	0	504	517	0	593	38	12	
5	0	0	0	0	512	515	0	691	38	13	
6	0	0	0	0	504	514	0	775	38	13	
7	0	0	0	0	508	515	0	876	38	13	
8	0	0	0	0	505	515	0	961	38	13	
9	0	0	0	0	505	518	0	1006	38	12	
10	0	0	0	0	512	520	0	1005	38	12	
11	0	0	0	0	516	521	0	984	38	12	
12	0	0	0	0	511	520	0	903	38	12	
13	0	0	0	0	508	520	0	768	38	12	
14	0	0	0	0	510	521	0	648	38	13	
15	0	0	0	0	507	520	0	470	38	13	
0	0	0	0	0	512	519	0	250	38	13	
1	0	0	0	0	509	517	0	0	38	12	
2	0	0	0	0	506	517	0	0	38	12	
3	0	0	0	0	515	519	0	0	38	12	
4	0	0	0	0	509	519	0	0	38	12	
5	0	0	0	0	509	518	0	0	38	12	
6	0	0	0	0	510	519	0	0	38	13	
7	0	0	0	0	504	518	0	0	38	13	
8	0	0	0	0	513	518	0	0	38	13	
9	0	0	0	0	510	517	0	0	38	12	
10	0	0	0	0	504	518	0	248	38	12	
11	0	0	0	0	506	519	0	419	38	12	
12	0	0	0	0	507	520	0	604	38	12	
13	0	0	0	0	506	521	0	755	38	12	
14	0	0	0	0	508	520	0	908	38	12	
15	0	0	0	0	510	520	0	990	38	13	
0	0	0	0	0	509	519	0	1011	38	13	
1	0	0	0	0	507	519	0	980	38	12	
2	0	0	0	0	507	519	0	904	38	12	
3	0	0	0	0	512	520	0	858	38	12	
4	0	0	0	0	507	519	0	846	38	12	
5	0	0	0	0	504	518	0	851	38	12	
6	0	0	0	0	507	517	0	899	38	12	
7	0	0	0	0	509	519	0	997	38	13	
8	0	0	0	0	507	520	0	1018	38	13	
9	0	0	0	0	514	522	0	1018	38	13	
10	0	0	0	0	511	524	0	1018	38	12	
11	0	0	0	0	514	521	0	1018	38	12	
12	0	0	0	0	509	521	0	1018	38	12	
13	0	0	0	0	512	521	0	1018	38	12	
14	0	0	0	0	501	522	0	1018	38	12	
15	0	0	0	0	510	523	0	1018	38	13	
0	0	0	0	0	511	522	0	1018	38	13	
1	0	0	0	0	509	522	0	1018	38	13	
2	0	0	0	0	504	524	0	1018	38	12	
3	0	0	0	0	506	522	0	1018	38	12	
4	0	0	0	0	506	520	0	1018	38	12	
5	0	0	0	0	508	521	0	1018	38	12	
6	0	0	0	0	510	521	0	1017	38	12	
7	0	0	0	0	514	523	0	746	38	12	
8	0	0	0	0	510	524	0	590	38	13	
9	0	0	0	0	507	527	0	531	38	13	
10	0	0	0	0	516	526	0	511	38	12	
11	0	0	0	0	511	525	0	547	38	12	
12	0	0	0	0	503	524	0	609	38	12	
13	0	0	0	0	499	525	0	675	38	12	
14	0	0	0	0	508	525	0	736	38	12	
15	0	0	0	0	510	526	0	800	38	12	
0	0	0	0	0	504	527	0	808	38	13	
1	0	0	0	0	513	528	0	780	38	13	
2	0	0	0	0	513	529	0	815	38	12	
3	0	0	0	0	509	528	0	898	38	12	
4	0	0	0	0	506	526	0	970	38	12	
5	0	0	0	0	513	524	0	1010	38	12	
6	0	0	0	0	507	524	0	964	38	12	
7	0	0	0	0	515	528	0	859	38	12	
8	0	0	0	0	511	528	0	743	38	12	
9	0	0	0	0	511	528	0	600	38	13	
10	0	0	0	0	508	535	0	438	38	13	
11	0	0	0	0	507	540	0	307	38	12	
12	0	0	0	0	500	540	0	249	38	12	
13	0	0	0	0	504	536	0	246	38	12	
14	0	0	0	0	514	535	0	260	38	12	
15	0	0	0	0	513	532	0	327	38	12	
0	0	0	0	0	505	531	0	389	38	12	
1	0	0	0	0	513	531	0	447	38	13	
2	0	0	0	0	503	531	0	452	38	13	
3	0	0	0	0	513	531	0	428	38	12	
4	0	0	0	0	508	531	0	450	38	12	
5	0	0	0	0	510	533	0	520	38	12	
6	0	0	0	0	506	531	0	605	38	12	
7	0	0	0	0	504	530	0	699	38	12	
8	0	0	0	0	507	531	0	824	38	12	
9	0	0	0	0	515	532	0	993	38	13	
10	0	0	0	0	502	533	0	1018	38	13	
11	0	0	0	0	504	534	0	1018	38	13	
12	0	0	0	0	507	535	0	1018	38	12	
13	0	0	0	0	503	534	0	1018	38	12	
14	0	0	0	0	513	534	0	1018	38	12	
15	0	0	0	0	511	536	0	1018	38	12	
0	0	0	0	0	508	537	0	1018	38	12	
1	0	0	0	0	510	536	0	1018	38	13	
2	0	0	0	0	517	538	0	1018	38	13	
3	0	0	0	0	514	540	0	1018	38	13	
4	0	0	0	0	501	540	0	1018	38	12	
5	0	0	0	0	501	540	0	862	38	12	
6	0	0	0	0	513	540	0	772	38	12	
7	0	0	0	0	502	537	0	715	38	12	
8	0	0	0	0	512	536	0	736	38	12	
9	0	0	0	0	504	537	0	792	38	12	
10	0	0	0	0	507	537	0	805	38	13	
11	0	0	0	0	513	537	0	801	38	13	
12	0	0	0	0	512	536	0	762	38	13	
13	0	0	0	0	509	536	0	620	38	12	
14	0	0	0	0	510	537	0	456	38	12	
15	0	0	0	0	508	537	0	313	38	12	
0	0	0	0	0	500	536	0	263	38	12	
1	0	0	0	0	500	534	0	234	38	12	
2	0	0	0	0	512	534	0	259	38	13	
3	0	0	0	0	507	533	0	287	38	13	
4	0	0	0	0	507	534	0	297	38	13	
5	0	0	0	0	511	534	0	277	38	12	
6	0	0	0	0	504	532	0	265	38	12	
7	0	0	0	0	505	534	0	195	38	12	
8	0	0	0	0	513	534	0	163	38	12	
9	0	0	0	0	507	533	0	127	38	12	
10	0	0	0	0	516	534	0	76	38	13	
11	0	0	0	0	508	533	0	65	38	13	
12	0	0	0	0	508	534	0	112	38	13	
13	0	0	0	0	510	538	0	207	38	12	
14	0	0	0	0	505	540	0	319	38	12	
15	0	0	0	0	509	535	0	404	38	12	
0	0	0	0	0	511	532	0	460	38	12	
1	0	0	0	0	510	532	0	511	38	12	
2	0	0	0	0	505	532	0	575	38	12	
3	0	0	0	0	508	530	0	638	38	13	
4	0	0	0	0	509	527	0	712	38	13	
5	0	0	0	0	508	525	0	808	38	13	
6	0	0	0	0	511	522	0	836	38	12	
7	0	0	0	0	512	518	0	905	38	12	
8	0	0	0	0	507	517	0	970	38	12	
9	0	0	0	0	507	518	0	998	38	12	
10	0	0	0	0	511	519	0	1002	38	12	
11	0	0	0	0	511	519	0	924	38	13	
12	0	0	0	0	511	518	0	846	38	13	
13	0	0	0	0	510	517	0	782	38	13	
14	0	0	0	0	505	516	0	627	38	13	
15	0	0	0	0	512	515	0	461	38	12	
0	0	0	0	0	509	516	0	349	38	12	
1	0	0	0	0	502	515	0	323	38	12	
2	0	0	0	0	506	512	0	282	38	12	
3	0	0	0	0	501	510	0	194	38	13	
4	0	0	0	0	515	508	0	106	38	13	
5	0	0	0	0	506	507	0	17	38	13	
6	0	0	0	0	512	508	0	0	38	13	
7	0	0	0	0	507	508	0	0	38	12	
8	0	0	0	0	515	507	0	0	38	12	
9	0	0	0	0	503	505	0	0	38	12	
10	0	0	0	0	513	503	0	0	38	12	
11	0	0	0	0	504	502	0	0	38	13	
12	0	0	0	0	508	496	0	0	38	13	
13	0	0	0	0	504	493	0	0	38	13	
14	0	0	0	0	502	492	0	0	38	13	
15	0	0	0	0	507	492	0	0	38	12	
0	0	0	0	0	511	495	0	0	38	12	
1	0	0	0	0	507	496	0	0	38	12	
2	0	0	0	0	505	492	0	0	38	13	
3	0	0	0	0	513	489	0	239	38	13	
4	0	0	0	0	510	488	0	433	38	13	
5	0	0	0	0	516	488	0	613	38	13	
6	0	0	0	0	512	487	0	740	38	13	
7	0	0	0	0	504	486	0	824	38	13	
8	0	0	0	0	499	487	0	933	38	12	
9	0	0	0	0	508	486	0	980	38	12	
10	0	0	0	0	515	484	0	941	38	12	
11	0	0	0	0	509	486	0	920	38	12	
12	0	0	0	0	515	491	0	946	38	13	
13	0	0	0	0	509	488	0	963	38	13	
14	0	0	0	0	510	484	0	897	38	13	
15	0	0	0	0	506	484	0	829	38	13	
0	0	0	0	0	509	486	0	791	38	12	
1	0	0	0	0	508	486	0	774	38	12	
2	0	0	0	0	507	484	0	835	38	12	
3	0	0	0	0	505	483	0	968	38	12	
4	0	0	0	0	504	481	0	1018	38	13	
5	0	0	0	0	507	480	0	1018	38	13	
6	0	0	0	0	507	479	0	1018	38	13	
7	0	0	0	0	509	481	0	1018	38	13	
8	0	0	0	0	510	481	0	1018	38	12	
9	0	0	0	0	504	480	0	1018	38	12	
10	0	0	0	0	510	480	0	1018	38	12	
11	0	0	0	0	511	480	0	1017	38	13	
12	0	0	0	0	518	480	0	919	38	13	
13	0	0	0	0	506	478	0	880	38	13	
14	0	0	0	0	509	479	0	873	38	13	
15	0	0	0	0	504	480	0	911	38	13	
0	0	0	0	0	503	480	0	958	38	13	
1	0	0	0	0	512	481	0	995	38	12	
2	0	0	0	0	512	482	0	974	38	12	
3	0	0	0	0	510	482	0	902	38	12	
4	0	0	0	0	507	482	0	741	38	12	
5	0	0	0	0	509	483	0	545	38	13	
6	0	0	0	0	506	483	0	496	38	13	
7	0	0	0	0	508	481	0	498	38	13	
8	0	0	0	0	511	481	0	543	38	13	
9	0	0	0	0	510	480	0	640	38	12	
10	0	0	0	0	512	482	0	780	38	12	
11	0	0	0	0	503	481	0	931	38	12	
12	0	0	0	0	509	480	0	1018	38	12	
13	0	0	0	0	518	478	0	1018	38	13	
14	0	0	0	0	506	479	0	1018	38	13	
15	0	0	0	0	508	479	0	1018	38	13	
0	0	0	0	0	505	480	0	1018	38	13	
1	0	0	0	0	504	482	0	1018	38	12	
2	0	0	0	0	509	483	0	1018	38	12	
3	0	0	0	0	512	484	0	1018	38	12	
4	0	0	0	0	510	485	0	1018	38	12	
5	0	0	0	0	505	482	0	1018	38	12	
6	0	0	0	0	514	482	0	1018	38	13	
7	0	0	0	0	504	483	0	1018	38	13	
8	0	0	0	0	507	484	0	1018	38	13	
9	0	0	0	0	517	484	0	1018	38	13	
10	0	0	0	0	507	488	0	1018	38	12	
11	0	0	0	0	512	493	0	1018	38	12	
12	0	0	0	0	510	493	0	1018	38	12	
13	0	0	0	0	507	489	0	1018	38	12	
14	0	0	0	0	508	485	0	1018	38	13	
15	0	0	0	0	506	485	0	1017	38	13	
0	0	0	0	0	509	490	0	822	38	13	
1	0	0	0	0	509	492	0	727	38	13	
2	0	0	0	0	508	489	0	637	38	12	
3	0	0	0	0	512	485	0	516	38	12	
4	0	0	0	0	510	487	0	312	38	12	
5	0	0	0	0	499	487	0	74	38	12	
6	0	0	0	0	507	488	0	0	38	13	
7	0	0	0	0	505	489	0	0	38	13	
8	0	0	0	0	511	488	0	0	38	13	
9	0	0	0	0	513	489	0	0	38	13	
10	0	0	0	0	512	490	0	0	38	12	
11	0	0	0	0	508	488	0	0	38	12	
12	0	0	0	0	506	489	0	0	38	12	
13	0	0	0	0	508	486	0	0	38	12	
14	0	0	0	0	509	486	0	135	38	12	
15	0	0	0	0	505	488	0	291	38	13	
0	0	0	0	0	507	489	0	400	38	13	
1	0	0	0	0	505	487	0	449	38	13	
2	0	0	0	0	510	487	0	543	38	12	
3	0	0	0	0	512	488	0	693	38	12	
4	0	0	0	0	510	489	0	842	38	12	
5	0	0	0	0	506	487	0	938	38	12	
6	0	0	0	0	507	487	0	993	38	12	
7	0	0	0	0	512	487	0	967	38	13	
8	0	0	0	0	512	487	0	890	38	13	
9	0	0	0	0	510	488	0	848	38	13	
10	0	0	0	0	508	492	0	780	38	12	
11	0	0	0	0	503	494	0	695	38	12	
12	0	0	0	0	507	493	0	585	38	12	
13	0	0	0	0	505	490	0	411	38	12	
14	0	0	0	0	510	489	0	247	38	12	
15	0	0	0	0	508	489	0	132	38	12	
0	0	0	0	0	510	490	0	44	38	13	
1	0	0	0	0	508	491	0	0	38	13	
2	0	0	0	0	509	490	0	0	38	13	
3	0	0	0	0	512	489	0	0	38	12	
4	0	0	0	0	499	492	0	80	38	12	
5	0	0	0	0	499	493	0	235	38	12	
6	0	0	0	0	506	493	0	416	38	12	
7	0	0	0	0	518	491	0	578	38	12	
8	0	0	0	0	515	491	0	706	38	13	
9	0	0	0	0	515	490	0	800	38	13	
10	0	0	0	0	500	491	0	839	38	13	
11	0	0	0	0	505	491	0	800	38	12	
12	0	0	0	0	513	492	0	659	38	12	
13	0	0	0	0	512	495	0	558	38	12	
14	0	0	0	0	512	497	0	460	38	12	
15	0	0	0	0	511	494	0	457	38	12	
0	0	0	0	0	500	492	0	476	38	13	
1	0	0	0	0	509	490	0	480	38	13	
2	0	0	0	0	506	491	0	537	38	13	
3	0	0	0	0	513	492	0	603	38	12	
4	0	0	0	0	506	493	0	694	38	12	
5	0	0	0	0	502	493	0	799	38	12	
6	0	0	0	0	512	490	0	833	38	12	
7	0	0	0	0	518	489	0	824	38	12	
8	0	0	0	0	508	489	0	863	38	12	
9	0	0	0	0	518	493	0	876	38	13	
10	0	0	0	0	511	494	0	888	38	13	
11	0	0	0	0	512	497	0	861	38	13	
12	0	0	0	0	509	497	0	872	38	12	
13	0	0	0	0	504	496	0	922	38	12	
14	0	0	0	0	501	497	0	963	38	12	
15	0	0	0	0	507	499	0	1017	38	12	
0	0	0	0	0	509	493	0	1017	38	12	
1	0	0	0	0	504	487	0	1018	38	13	
2	0	0	0	0	512	488	0	985	38	13	
3	0	0	0	0	504	492	0	832	38	13	
4	0	0	0	0	511	493	0	748	38	12	
5	0	0	0	0	508	497	0	650	38	12	
6	0	0	0	0	508	501	0	568	38	12	
7	0	0	0	0	513	503	0	543	38	12	
8	0	0	0	0	512	504	0	543	38	12	
9	0	0	0	0	507	504	0	531	38	13	
10	0	0	0	0	505	502	0	563	38	13	
11	0	0	0	0	517	502	0	621	38	13	
12	0	0	0	0	508	503	0	663	38	13	
13	0	0	0	0	510	498	0	712	38	12	
14	0	0	0	0	505	497	0	763	38	12	
15	0	0	0	0	512	503	0	795	38	12	
0	0	0	0	0	507	502	0	835	38	12	
1	0	0	0	0	506	498	0	870	38	12	
2	0	0	0	0	507	498	0	864	38	13	
3	0	0	0	0	512	501	0	798	38	13	
4	0	0	0	0	513	505	0	735	38	13	
5	0	0	0	0	507	508	0	668	38	12	
6	0	0	0	0	508	502	0	603	38	12	
7	0	0	0	0	507	499	0	548	38	12	
8	0	0	0	0	514	500	0	471	38	12	
9	0	0	0	0	508	502	0	392	38	12	
10	0	0	0	0	508	504	0	359	38	13	
11	0	0	0	0	510	506	0	413	38	13	
12	0	0	0	0	510	508	0	509	38	13	
13	0	0	0	0	511	506	0	586	38	12	
14	0	0	0	0	508	505	0	619	38	12	
15	0	0	0	0	509	505	0	621	38	12	
0	0	0	0	0	515	500	0	508	38	12	
1	0	0	0	0	511	500	0	300	38	12	
2	0	0	0	0	508	504	0	88	38	13	
3	0	0	0	0	512	502	0	0	38	13	
4	0	0	0	0	506	498	0	0	38	13	
5	0	0	0	0	509	497	0	0	38	13	
6	0	0	0	0	507	495	0	0	38	12	
7	0	0	0	0	511	495	0	107	38	12	
8	0	0	0	0	507	496	0	265	38	12	
9	0	0	0	0	510	501	0	434	38	12	
10	0	0	0	0	503	506	0	584	38	12	
11	0	0	0	0	507	507	0	664	38	13	
12	0	0	0	0	512	505	0	715	38	13	
13	0	0	0	0	510	504	0	725	38	13	
14	0	0	0	0	508	503	0	697	38	12	
15	0	0	0	0	512	503	0	702	38	12	
0	0	0	0	0	507	505	0	683	38	12	
1	0	0	0	0	519	510	0	570	38	12	
2	0	0	0	0	512	513	0	435	38	12	
3	0	0	0	0	503	511	0	335	38	13	
4	0	0	0	0	507	508	0	277	38	13	
5	0	0	0	0	512	508	0	232	38	13	
6	0	0	0	0	509	509	0	271	38	13	
7	0	0	0	0	503	510	0	393	38	12	
8	0	0	0	0	507	513	0	512	38	12	
9	0	0	0	0	511	510	0	606	38	12	
10	0	0	0	0	503	507	0	655	38	12	
11	0	0	0	0	511	504	0	700	38	13	
12	0	0	0	0	509	504	0	811	38	13	
13	0	0	0	0	502	507	0	880	38	13	
14	0	0	0	0	512	510	0	924	38	13	
15	0	0	0	0	511	511	0	950	38	12	
0	0	0	0	0	507	511	0	1000	38	12	
1	0	0	0	0	507	514	0	973	38	12	
2	0	0	0	0	510	514	0	885	38	12	
3	0	0	0	0	512	508	0	817	38	13	
4	0	0	0	0	511	508	0	827	38	13	
5	0	0	0	0	511	510	0	912	38	13	
6	0	0	0	0	508	508	0	1016	38	13	
7	0	0	0	0	505	508	0	1018	38	13	
8	0	0	0	0	507	512	0	1018	38	12	
9	0	0	0	0	510	513	0	1018	38	12	
10	0	0	0	0	512	508	0	1017	38	12	
11	0	0	0	0	505	507	0	902	38	13	
12	0	0	0	0	510	511	0	847	38	13	
13	0	0	0	0	505	511	0	805	38	13	
14	0	0	0	0	507	510	0	771	38	13	
15	0	0	0	0	512	507	0	692	38	13	
0	0	0	0	0	512	508	0	609	38	12	
1	0	0	0	0	510	513	0	560	38	12	
2	0	0	0	0	508	512	0	552	38	12	
3	0	0	0	0	519	511	0	577	38	12	
4	0	0	0	0	505	511	0	611	38	13	
5	0	0	0	0	509	511	0	610	38	13	
6	0	0	0	0	504	512	0	588	38	13	
7	0	0	0	0	510	514	0	550	38	13	
8	0	0	0	0	512	517	0	491	38	12	
9	0	0	0	0	514	517	0	480	38	12	
10	0	0	0	0	504	516	0	511	38	12	
11	0	0	0	0	513	515	0	584	38	12	
12	0	0	0	0	507	515	0	649	38	13	
13	0	0	0	0	510	518	0	685	38	13	
14	0	0	0	0	507	518	0	739	38	13	
15	0	0	0	0	510	513	0	732	38	13	
0	0	0	0	0	502	508	0	680	38	13	
1	0	0	0	0	507	510	0	517	38	12	
2	0	0	0	0	505	509	0	280	38	12	
3	0	0	0	0	505	508	0	73	38	13	
4	0	0	0	0	510	506	0	0	38	13	
5	0	0	0	0	507	507	0	0	38	13	
6	0	0	0	0	507	508	0	0	38	13	
7	0	0	0	0	507	512	0	0	38	13	
8	0	0	0	0	511	516	0	0	38	13	
9	0	0	0	0	510	517	0	0	38	12	
10	0	0	0	0	503	516	0	0	38	12	
11	0	0	0	0	508	513	0	0	38	12	
12	0	0	0	0	507	510	0	0	38	12	
13	0	0	0	0	506	509	0	0	38	13	
14	0	0	0	0	511	511	0	0	38	13	
15	0	0	0	0	514	515	0	0	38	13	
0	0	0	0	0	508	518	0	198	38	13	
1	0	0	0	0	508	519	0	399	38	12	
2	0	0	0	0	506	515	0	591	38	12	
3	0	0	0	0	512	508	0	761	38	12	
4	0	0	0	0	506	507	0	884	38	12	
5	0	0	0	0	513	507	0	961	38	13	
6	0	0	0	0	512	507	0	1017	38	13	
7	0	0	0	0	504	508	0	1018	38	13	
8	0	0	0	0	500	508	0	1018	38	13	
9	0	0	0	0	512	511	0	1018	38	13	
10	0	0	0	0	510	510	0	1018	38	12	
11	0	0	0	0	507	504	0	1018	38	12	
12	0	0	0	0	512	502	0	1018	38	12	
13	0	0	0	0	511	504	0	1018	38	12	
14	0	0	0	0	512	506	0	1018	38	13	
15	0	0	0	0	512	505	0	1018	38	13	
0	0	0	0	0	506	504	0	1018	38	13	
1	0	0	0	0	510	504	0	895	38	13	
2	0	0	0	0	506	503	0	801	38	12	
3	0	0	0	0	504	503	0	727	38	12	
4	0	0	0	0	508	501	0	692	38	12	
5	0	0	0	0	509	500	0	656	38	12	
6	0	0	0	0	507	499	0	681	38	13	
7	0	0	0	0	515	499	0	734	38	13	
8	0	0	0	0	510	500	0	847	38	13	
9	0	0	0	0	510	503	0	961	38	13	
10	0	0	0	0	509	503	0	1018	38	12	
11	0	0	0	0	513	500	0	1017	38	12	
12	0	0	0	0	504	499	0	1018	38	12	
13	0	0	0	0	513	498	0	1018	38	12	
14	0	0	0	0	504	497	0	1018	38	13	
15	0	0	0	0	508	498	0	1018	38	13	
0	0	0	0	0	510	496	0	1018	38	13	
1	0	0	0	0	505	497	0	937	38	13	
2	0	0	0	0	507	498	0	824	38	12	
3	0	0	0	0	511	496	0	656	38	12	
4	0	0	0	0	509	489	0	429	38	12	
5	0	0	0	0	508	490	0	224	38	12	
6	0	0	0	0	511	496	0	132	38	13	
7	0	0	0	0	507	497	0	93	38	13	
8	0	0	0	0	511	496	0	108	38	13	
9	0	0	0	0	512	494	0	99	38	13	
10	0	0	0	0	508	495	0	90	38	13	
11	0	0	0	0	515	496	0	124	38	12	
12	0	0	0	0	505	497	0	172	38	12	
13	0	0	0	0	511	497	0	274	38	12	
14	0	0	0	0	517	497	0	407	38	12	
15	0	0	0	0	506	496	0	570	38	13	
0	0	0	0	0	502	494	0	685	38	13	
1	0	0	0	0	509	492	0	700	38	13	
2	0	0	0	0	512	492	0	692	38	13	
3	0	0	0	0	510	491	0	677	38	12	
4	0	0	0	0	505	493	0	672	38	12	
5	0	0	0	0	509	494	0	700	38	12	
6	0	0	0	0	512	497	0	704	38	12	
7	0	0	0	0	507	499	0	684	38	13	
8	0	0	0	0	507	499	0	594	38	13	
9	0	0	0	0	510	499	0	518	38	13	
10	0	0	0	0	513	499	0	505	38	13	
11	0	0	0	0	508	499	0	511	38	13	
12	0	0	0	0	508	497	0	534	38	12	
13	0	0	0	0	500	497	0	603	38	12	
14	0	0	0	0	508	497	0	659	38	12	
15	0	0	0	0	510	497	0	720	38	12	
0	0	0	0	0	516	498	0	696	38	13	
1	0	0	0	0	512	499	0	684	38	13	
2	0	0	0	0	503	497	0	693	38	13	
3	0	0	0	0	505	496	0	666	38	13	
4	0	0	0	0	508	496	0	576	38	12	
5	0	0	0	0	510	495	0	466	38	12	
6	0	0	0	0	512	495	0	382	38	12	
7	0	0	0	0	506	494	0	240	38	12	
8	0	0	0	0	514	495	0	48	38	13	
9	0	0	0	0	507	497	0	0	38	13	
10	0	0	0	0	507	502	0	0	38	13	
11	0	0	0	0	510	505	0	0	38	13	
12	0	0	0	0	505	504	0	0	38	12	
13	0	0	0	0	510	496	0	0	38	12	
14	0	0	0	0	511	491	0	181	38	12	
15	0	0	0	0	510	491	0	361	38	12	
0	0	0	0	0	510	492	0	514	38	12	
1	0	0	0	0	510	492	0	566	38	13	
2	0	0	0	0	512	494	0	543	38	13	
3	0	0	0	0	510	492	0	553	38	13	
4	0	0	0	0	506	487	0	569	38	12	
5	0	0	0	0	505	488	0	568	38	12	
6	0	0	0	0	510	493	0	538	38	12	
7	0	0	0	0	517	496	0	442	38	12	
8	0	0	0	0	503	496	0	293	38	12	
9	0	0	0	0	507	496	0	131	38	13	
10	0	0	0	0	510	497	0	0	38	13	
11	0	0	0	0	510	499	0	0	38	13	
12	0	0	0	0	498	504	0	0	38	12	
13	0	0	0	0	513	507	0	0	38	12	
14	0	0	0	0	512	512	0	0	38	12	
15	0	0	0	0	510	521	0	0	38	12	
0	0	0	0	0	507	527	0	0	38	12	
1	0	0	0	0	510	531	0	0	38	12	
2	0	0	0	0	510	536	0	0	38	13	
3	0	0	0	0	502	543	0	0	38	13	
4	0	0	0	0	513	545	0	112	38	13	
5	0	0	0	0	510	546	0	136	38	12	
6	0	0	0	0	509	549	0	162	38	12	
7	0	0	0	0	509	551	0	206	38	12	
8	0	0	0	0	510	550	0	213	38	12	
9	0	0	0	0	505	548	0	224	38	12	
10	0	0	0	0	513	548	0	236	38	13	
11	0	0	0	0	509	549	0	278	38	13	
12	0	0	0	0	510	547	0	347	38	13	
13	0	0	0	0	503	546	0	452	38	12	
14	0	0	0	0	508	548	0	601	38	12	
15	0	0	0	0	503	551	0	738	38	12	
0	0	0	0	0	507	550	0	871	38	12	
1	0	0	0	0	504	547	0	950	38	12	
2	0	0	0	0	513	543	0	1017	38	13	
3	0	0	0	0	511	536	0	1018	38	13	
4	0	0	0	0	509	530	0	1018	38	13	
5	0	0	0	0	504	523	0	1017	38	13	
6	0	0	0	0	509	515	0	782	38	12	
7	0	0	0	0	510	505	0	599	38	12	
8	0	0	0	0	505	492	0	488	38	12	
9	0	0	0	0	508	483	0	468	38	12	
10	0	0	0	0	506	478	0	536	38	13	
11	0	0	0	0	511	473	0	602	38	13	
12	0	0	0	0	514	475	0	664	38	13	
13	0	0	0	0	507	475	0	689	38	13	
14	0	0	0	0	512	475	0	619	38	12	
15	0	0	0	0	508	471	0	480	38	12	
0	0	0	0	0	510	468	0	320	38	12	
1	0	0	0	0	504	465	0	190	38	12	
2	0	0	0	0	504	463	0	98	38	12	
3	0	0	0	0	510	463	0	0	38	13	
4	0	0	0	0	505	463	0	0	38	13	
5	0	0	0	0	508	463	0	0	38	13	
6	0	0	0	0	513	462	0	0	38	13	
7	0	0	0	0	506	464	0	0	38	12	
8	0	0	0	0	513	467	0	0	38	12	
9	0	0	0	0	505	468	0	0	38	12	
10	0	0	0	0	513	470	0	0	38	12	
11	0	0	0	0	510	472	0	0	38	13	
12	0	0	0	0	506	472	0	0	38	13	
13	0	0	0	0	514	474	0	230	38	13	
14	0	0	0	0	505	475	0	348	38	13	
15	0	0	0	0	505	477	0	454	38	12	
0	0	0	0	0	507	481	0	567	38	12	
1	0	0	0	0	505	486	0	608	38	12	
2	0	0	0	0	507	490	0	562	38	12	
3	0	0	0	0	507	492	0	566	38	13	
4	0	0	0	0	512	491	0	604	38	13	
5	0	0	0	0	508	488	0	611	38	13	
6	0	0	0	0	498	488	0	630	38	13	
7	0	0	0	0	508	488	0	659	38	12	
8	0	0	0	0	511	488	0	616	38	12	
9	0	0	0	0	513	489	0	518	38	12	
10	0	0	0	0	508	497	0	456	38	12	
11	0	0	0	0	508	510	0	424	38	12	
12	0	0	0	0	512	521	0	423	38	13	
13	0	0	0	0	503	517	0	506	38	13	
14	0	0	0	0	506	502	0	613	38	13	
15	0	0	0	0	501	497	0	763	38	13	
0	0	0	0	0	500	496	0	894	38	12	
1	0	0	0	0	512	497	0	995	38	12	
2	0	0	0	0	513	497	0	1017	38	12	
3	0	0	0	0	519	499	0	1017	38	12	
4	0	0	0	0	507	499	0	904	38	13	
5	0	0	0	0	510	500	0	758	38	13	
6	0	0	0	0	512	502	0	637	38	13	
7	0	0	0	0	509	504	0	564	38	13	
8	0	0	0	0	504	504	0	550	38	12	
9	0	0	0	0	505	501	0	559	38	12	
10	0	0	0	0	510	497	0	591	38	12	
11	0	0	0	0	508	494	0	615	38	12	
12	0	0	0	0	510	498	0	647	38	13	
13	0	0	0	0	511	502	0	692	38	13	
14	0	0	0	0	512	503	0	673	38	13	
15	0	0	0	0	503	504	0	677	38	13	
0	0	0	0	0	508	505	0	680	38	12	
1	0	0	0	0	508	507	0	674	38	12	
2	0	0	0	0	507	506	0	696	38	12	
3	0	0	0	0	505	505	0	744	38	12	
4	0	0	0	0	510	507	0	817	38	12	
5	0	0	0	0	517	511	0	895	38	13	
6	0	0	0	0	505	512	0	974	38	13	
7	0	0	0	0	512	512	0	1013	38	13	
8	0	0	0	0	511	511	0	968	38	13	
9	0	0	0	0	510	511	0	851	38	12	
10	0	0	0	0	513	512	0	770	38	12	
11	0	0	0	0	503	513	0	695	38	12	
12	0	0	0	0	508	514	0	642	38	12	
13	0	0	0	0	505	515	0	640	38	13	
14	0	0	0	0	507	513	0	610	38	13	
15	0	0	0	0	503	512	0	537	38	13	
0	0	0	0	0	509	508	0	507	38	13	
1	0	0	0	0	512	507	0	502	38	12	
2	0	0	0	0	510	507	0	523	38	12	
3	0	0	0	0	512	508	0	606	38	12	
4	0	0	0	0	515	510	0	641	38	12	
5	0	0	0	0	513	510	0	686	38	13	
6	0	0	0	0	509	512	0	775	38	13	
7	0	0	0	0	508	515	0	859	38	13	
8	0	0	0	0	512	517	0	888	38	13	
9	0	0	0	0	508	517	0	888	38	12	
10	0	0	0	0	509	515	0	909	38	12	
11	0	0	0	0	503	515	0	999	38	12	
12	0	0	0	0	510	515	0	1018	38	12	
13	0	0	0	0	514	517	0	1018	38	13	
14	0	0	0	0	511	517	0	1018	38	13	
15	0	0	0	0	511	512	0	1018	38	13	
0	0	0	0	0	513	511	0	1017	38	13	
1	0	0	0	0	508	512	0	1017	38	13	
2	0	0	0	0	505	512	0	849	38	12	
3	0	0	0	0	500	510	0	803	37	12	
4	0	0	0	0	504	513	0	833	38	12	
5	0	0	0	0	509	513	0	882	38	13	
6	0	0	0	0	515	515	0	886	38	13	
7	0	0	0	0	513	516	0	879	38	13	
8	0	0	0	0	510	516	0	872	38	13	
9	0	0	0	0	502	515	0	867	38	13	
10	0	0	0	0	502	516	0	786	38	12	
11	0	0	0	0	500	517	0	702	37	12	
12	0	0	0	0	511	516	0	609	38	12	
13	0	0	0	0	517	519	0	547	38	12	
14	0	0	0	0	510	521	0	542	38	13	
15	0	0	0	0	504	521	0	556	38	13	
0	0	0	0	0	508	521	0	537	38	13	
1	0	0	0	0	510	522	0	536	38	13	
2	0	0	0	0	507	522	0	594	38	12	
3	0	0	0	0	507	519	0	732	38	12	
4	0	0	0	0	508	517	0	895	38	12	
5	0	0	0	0	507	518	0	998	38	12	
6	0	0	0	0	509	521	0	980	38	13	
7	0	0	0	0	510	526	0	905	38	13	
8	0	0	0	0	506	526	0	818	38	13	
9	0	0	0	0	516	519	0	723	38	13	
10	0	0	0	0	505	517	0	654	38	13	
11	0	0	0	0	514	518	0	605	38	12	
12	0	0	0	0	514	519	0	537	38	12	
13	0	0	0	0	506	519	0	323	38	12	
14	0	0	0	0	508	516	0	165	38	12	
15	0	0	0	0	504	516	0	123	38	13	
0	0	0	0	0	507	517	0	167	38	13	
1	0	0	0	0	504	518	0	184	38	13	
2	0	0	0	0	511	517	0	166	38	13	
3	0	0	0	0	507	515	0	145	38	12	
4	0	0	0	0	509	517	0	122	38	12	
5	0	0	0	0	512	518	0	176	38	12	
6	0	0	0	0	510	519	0	252	38	12	
7	0	0	0	0	512	518	0	315	38	13	
8	0	0	0	0	509	516	0	394	38	13	
9	0	0	0	0	510	515	0	444	38	13	
10	0	0	0	0	513	520	0	485	38	13	
11	0	0	0	0	503	521	0	486	38	12	
12	0	0	0	0	507	520	0	415	38	12	
13	0	0	0	0	506	519	0	311	38	12	
14	0	0	0	0	500	519	0	236	38	12	
15	0	0	0	0	517	519	0	244	38	12	
0	0	0	0	0	507	518	0	292	38	13	
1	0	0	0	0	505	516	0	359	38	13	
2	0	0	0	0	513	516	0	492	38	13	
3	0	0	0	0	515	516	0	667	38	13	
4	0	0	0	0	504	516	0	799	38	12	
5	0	0	0	0	507	518	0	864	38	12	
6	0	0	0	0	510	520	0	887	38	12	
7	0	0	0	0	512	522	0	876	38	12	
8	0	0	0	0	507	523	0	895	38	13	
9	0	0	0	0	513	521	0	952	38	13	
10	0	0	0	0	504	521	0	997	38	13	
11	0	0	0	0	510	525	0	1000	38	13	
12	0	0	0	0	505	525	0	1017	38	12	
13	0	0	0	0	508	525	0	1018	38	12	
14	0	0	0	0	508	523	0	1018	38	12	
15	0	0	0	0	508	523	0	872	38	12	
0	0	0	0	0	509	520	0	843	38	12	
1	0	0	0	0	511	521	0	835	38	13	
2	0	0	0	0	509	522	0	824	38	13	
3	0	0	0	0	508	523	0	820	38	13	
4	0	0	0	0	515	523	0	833	38	12	
5	0	0	0	0	515	523	0	891	38	12	
6	0	0	0	0	508	524	0	971	38	12	
7	0	0	0	0	506	523	0	1017	38	12	
8	0	0	0	0	505	523	0	1018	38	12	
9	0	0	0	0	508	523	0	1018	38	13	
10	0	0	0	0	510	524	0	1018	38	13	
11	0	0	0	0	512	524	0	1018	38	13	
12	0	0	0	0	505	525	0	1017	38	12	
13	0	0	0	0	510	524	0	897	38	12	
14	0	0	0	0	512	524	0	829	38	12	
15	0	0	0	0	511	525	0	768	38	12	
0	0	0	0	0	505	526	0	702	38	12	
1	0	0	0	0	508	526	0	603	38	12	
2	0	0	0	0	505	523	0	472	38	13	
3	0	0	0	0	506	523	0	364	38	13	
4	0	0	0	0	518	526	0	219	38	13	
5	0	0	0	0	508	527	0	142	38	12	
6	0	0	0	0	511	526	0	116	38	12	
7	0	0	0	0	507	526	0	210	38	12	
8	0	0	0	0	506	526	0	302	38	12	
9	0	0	0	0	512	527	0	411	38	12	
10	0	0	0	0	503	526	0	510	38	13	
11	0	0	0	0	505	526	0	567	38	13	
12	0	0	0	0	510	524	0	598	38	13	
13	0	0	0	0	507	526	0	643	38	12	
14	0	0	0	0	510	527	0	673	38	12	
15	0	0	0	0	509	527	0	684	38	12	
0	0	0	0	0	511	528	0	678	38	12	
1	0	0	0	0	507	531	0	680	38	12	
2	0	0	0	0	505	533	0	659	38	12	
3	0	0	0	0	507	534	0	599	38	13	
4	0	0	0	0	515	532	0	527	38	13	
5	0	0	0	0	503	531	0	522	38	12	
6	0	0	0	0	508	531	0	536	38	12	
7	0	0	0	0	508	534	0	563	38	12	
8	0	0	0	0	507	534	0	585	38	12	
9	0	0	0	0	507	532	0	591	38	12	
10	0	0	0	0	515	532	0	627	38	12	
11	0	0	0	0	507	532	0	703	38	13	
12	0	0	0	0	507	530	0	712	38	13	
13	0	0	0	0	507	531	0	688	38	12	
14	0	0	0	0	510	533	0	627	38	12	
15	0	0	0	0	510	533	0	555	38	12	
0	0	0	0	0	513	530	0	511	38	12	
1	0	0	0	0	505	532	0	531	38	12	
2	0	0	0	0	512	531	0	544	38	12	
3	0	0	0	0	515	528	0	551	38	13	
4	0	0	0	0	517	528	0	580	38	13	
5	0	0	0	0	500	527	0	588	38	12	
6	0	0	0	0	509	530	0	602	38	12	
7	0	0	0	0	505	535	0	655	38	12	
8	0	0	0	0	515	536	0	704	38	12	
9	0	0	0	0	514	531	0	746	38	12	
10	0	0	0	0	503	529	0	775	38	12	
11	0	0	0	0	510	529	0	764	38	13	
12	0	0	0	0	510	532	0	762	38	13	
13	0	0	0	0	508	532	0	731	38	13	
14	0	0	0	0	505	531	0	655	38	12	
15	0	0	0	0	511	531	0	641	38	12	
0	0	0	0	0	500	529	0	655	38	12	
1	0	0	0	0	509	530	0	690	38	12	
2	0	0	0	0	510	531	0	758	38	12	
3	0	0	0	0	504	529	0	809	38	12	
4	0	0	0	0	508	528	0	830	38	13	
5	0	0	0	0	512	527	0	856	38	13	
6	0	0	0	0	505	525	0	946	38	13	
7	0	0	0	0	511	524	0	1018	38	12	
8	0	0	0	0	505	521	0	1018	38	12	
9	0	0	0	0	507	518	0	1018	38	12	
10	0	0	0	0	512	519	0	911	38	12	
11	0	0	0	0	511	518	0	792	38	12	
12	0	0	0	0	508	518	0	670	38	13	
13	0	0	0	0	508	517	0	509	38	13	
14	0	0	0	0	513	515	0	372	38	13	
15	0	0	0	0	511	514	0	273	38	12	
0	0	0	0	0	511	514	0	208	38	12	
1	0	0	0	0	511	513	0	213	38	12	
2	0	0	0	0	507	512	0	249	38	12	
3	0	0	0	0	515	510	0	319	38	12	
4	0	0	0	0	506	510	0	381	38	12	
5	0	0	0	0	508	509	0	484	38	13	
6	0	0	0	0	510	508	0	575	38	13	
7	0	0	0	0	505	507	0	678	38	12	
8	0	0	0	0	510	504	0	760	38	12	
9	0	0	0	0	505	502	0	794	38	12	
10	0	0	0	0	508	501	0	752	38	12	
11	0	0	0	0	512	499	0	688	38	12	
12	0	0	0	0	510	497	0	604	38	12	
13	0	0	0	0	512	497	0	495	38	13	
14	0	0	0	0	508	498	0	352	38	13	
15	0	0	0	0	508	496	0	170	38	13	
0	0	0	0	0	508	494	0	54	38	12	
1	0	0	0	0	498	494	0	0	38	12	
2	0	0	0	0	501	492	0	0	38	12	
3	0	0	0	0	511	489	0	0	38	12	
4	0	0	0	0	519	490	0	0	38	12	
5	0	0	0	0	504	491	0	142	38	13	
6	0	0	0	0	517	491	0	337	38	13	
7	0	0	0	0	513	491	0	505	38	13	
8	0	0	0	0	506	490	0	641	38	12	
9	0	0	0	0	515	488	0	746	38	12	
10	0	0	0	0	509	490	0	801	38	12	
11	0	0	0	0	508	490	0	837	38	12	
12	0	0	0	0	503	491	0	896	38	12	
13	0	0	0	0	502	493	0	951	38	13	
14	0	0	0	0	509	493	0	960	38	13	
15	0	0	0	0	515	491	0	920	38	13	
0	0	0	0	0	511	488	0	856	38	13	
1	0	0	0	0	515	486	0	808	38	12	
2	0	0	0	0	504	485	0	748	38	12	
3	0	0	0	0	513	482	0	628	38	12	
4	0	0	0	0	513	481	0	486	38	12	
5	0	0	0	0	502	482	0	337	38	13	
6	0	0	0	0	507	483	0	244	38	13	
7	0	0	0	0	508	483	0	236	38	13	
8	0	0	0	0	508	484	0	248	38	13	
9	0	0	0	0	510	487	0	312	38	12	
10	0	0	0	0	502	488	0	420	38	12	
11	0	0	0	0	502	488	0	519	38	12	
12	0	0	0	0	515	488	0	596	38	12	
13	0	0	0	0	518	490	0	676	38	12	
14	0	0	0	0	512	488	0	745	38	13	
15	0	0	0	0	511	486	0	806	38	13	
0	0	0	0	0	513	486	0	870	38	13	
1	0	0	0	0	500	488	0	899	38	12	
2	0	0	0	0	512	490	0	864	38	12	
3	0	0	0	0	513	491	0	802	38	12	
4	0	0	0	0	515	494	0	703	38	12	
5	0	0	0	0	504	498	0	595	38	12	
6	0	0	0	0	508	500	0	517	38	13	
7	0	0	0	0	506	495	0	513	38	13	
8	0	0	0	0	504	487	0	547	38	13	
9	0	0	0	0	507	487	0	600	38	13	
10	0	0	0	0	506	487	0	659	38	12	
11	0	0	0	0	506	483	0	678	38	12	
12	0	0	0	0	510	482	0	549	38	12	
13	0	0	0	0	512	482	0	435	38	12	
14	0	0	0	0	508	483	0	385	38	13	
15	0	0	0	0	510	485	0	369	38	13	
0	0	0	0	0	519	486	0	351	38	13	
1	0	0	0	0	516	488	0	334	38	13	
2	0	0	0	0	502	485	0	351	38	12	
3	0	0	0	0	509	487	0	253	38	12	
4	0	0	0	0	512	489	0	85	38	12	
5	0	0	0	0	507	488	0	0	38	12	
6	0	0	0	0	504	487	0	0	38	13	
7	0	0	0	0	511	486	0	0	38	13	
8	0	0	0	0	507	486	0	0	38	13	
9	0	0	0	0	508	486	0	0	38	13	
10	0	0	0	0	508	485	0	0	38	12	
11	0	0	0	0	510	484	0	0	38	12	
12	0	0	0	0	508	488	0	108	38	12	
13	0	0	0	0	504	488	0	223	38	12	
14	0	0	0	0	510	487	0	395	38	12	
15	0	0	0	0	508	489	0	559	38	13	
0	0	0	0	0	504	492	0	687	38	13	
1	0	0	0	0	513	495	0	806	38	13	
2	0	0	0	0	509	492	0	853	38	13	
3	0	0	0	0	511	485	0	834	38	12	
4	0	0	0	0	506	486	0	743	38	12	
5	0	0	0	0	510	490	0	664	38	12	
6	0	0	0	0	508	491	0	653	38	12	
7	0	0	0	0	508	493	0	645	38	12	
8	0	0	0	0	510	497	0	608	38	13	
9	0	0	0	0	510	498	0	575	38	13	
10	0	0	0	0	507	495	0	486	38	12	
11	0	0	0	0	508	495	0	428	38	12	
12	0	0	0	0	513	496	0	417	38	12	
13	0	0	0	0	510	498	0	435	38	12	
14	0	0	0	0	510	499	0	431	38	12	
15	0	0	0	0	513	497	0	462	38	12	
0	0	0	0	0	508	496	0	523	38	13	
1	0	0	0	0	512	496	0	524	38	13	
2	0	0	0	0	509	495	0	512	38	13	
3	0	0	0	0	502	492	0	506	38	12	
4	0	0	0	0	510	492	0	557	38	12	
5	0	0	0	0	503	493	0	609	38	12	
6	0	0	0	0	510	495	0	641	38	12	
7	0	0	0	0	508	498	0	668	38	12	
8	0	0	0	0	509	496	0	652	38	12	
9	0	0	0	0	505	492	0	567	38	13	
10	0	0	0	0	507	493	0	352	38	13	
11	0	0	0	0	510	494	0	162	38	12	
12	0	0	0	0	506	494	0	0	38	12	
13	0	0	0	0	513	494	0	0	38	12	
14	0	0	0	0	507	494	0	0	38	12	
15	0	0	0	0	514	496	0	0	38	12	
0	0	0	0	0	510	500	0	0	38	12	
1	0	0	0	0	507	500	0	0	38	13	
2	0	0	0	0	499	495	0	175	38	13	
3	0	0	0	0	508	493	0	405	38	13	
4	0	0	0	0	516	496	0	574	38	12	
5	0	0	0	0	506	501	0	650	38	12	
6	0	0	0	0	512	502	0	651	38	12	
7	0	0	0	0	514	500	0	596	38	12	
8	0	0	0	0	508	500	0	440	38	12	
9	0	0	0	0	509	501	0	244	38	12	
10	0	0	0	0	505	504	0	97	38	13	
11	0	0	0	0	505	503	0	51	38	13	
12	0	0	0	0	507	499	0	0	38	12	
13	0	0	0	0	503	497	0	0	38	12	
14	0	0	0	0	508	495	0	0	38	12	
15	0	0	0	0	513	495	0	0	38	12	
0	0	0	0	0	510	497	0	0	38	12	
1	0	0	0	0	511	498	0	0	38	12	
2	0	0	0	0	510	498	0	0	38	13	
3	0	0	0	0	513	501	0	0	38	13	
4	0	0	0	0	505	504	0	0	38	12	
5	0	0	0	0	508	499	0	0	38	12	
6	0	0	0	0	505	493	0	0	38	12	
7	0	0	0	0	515	490	0	0	38	12	
8	0	0	0	0	515	490	0	243	38	12	
9	0	0	0	0	508	495	0	393	38	12	
10	0	0	0	0	504	495	0	528	38	12	
11	0	0	0	0	508	497	0	652	38	13	
12	0	0	0	0	506	498	0	735	38	12	
13	0	0	0	0	506	498	0	809	38	12	
14	0	0	0	0	508	497	0	889	38	12	
15	0	0	0	0	511	497	0	951	38	12	
0	0	0	0	0	515	496	0	1011	38	12	
1	0	0	0	0	508	498	0	1017	38	12	
2	0	0	0	0	513	501	0	1018	38	12	
3	0	0	0	0	504	503	0	916	38	13	
4	0	0	0	0	507	502	0	722	38	12	
5	0	0	0	0	506	502	0	525	38	12	
6	0	0	0	0	505	504	0	372	38	12	
7	0	0	0	0	512	507	0	334	38	12	
8	0	0	0	0	508	507	0	419	38	12	
9	0	0	0	0	514	505	0	496	38	12	
10	0	0	0	0	504	504	0	472	38	12	
11	0	0	0	0	508	502	0	354	38	13	
12	0	0	0	0	511	500	0	304	38	12	
13	0	0	0	0	509	496	0	367	38	12	
14	0	0	0	0	510	496	0	446	38	12	
15	0	0	0	0	500	498	0	569	38	12	
0	0	0	0	0	511	500	0	687	38	12	
1	0	0	0	0	513	499	0	757	38	12	
2	0	0	0	0	507	498	0	816	38	12	
3	0	0	0	0	508	497	0	901	38	12	
4	0	0	0	0	507	498	0	966	38	13	
5	0	0	0	0	507	499	0	981	38	12	
6	0	0	0	0	512	501	0	966	38	12	
7	0	0	0	0	513	505	0	894	38	12	
8	0	0	0	0	504	507	0	816	38	12	
9	0	0	0	0	510	507	0	768	38	12	
10	0	0	0	0	508	504	0	778	38	12	
11	0	0	0	0	503	507	0	784	38	12	
12	0	0	0	0	507	512	0	739	38	12	
13	0	0	0	0	511	513	0	683	38	12	
14	0	0	0	0	504	509	0	595	38	12	
15	0	0	0	0	509	508	0	482	38	12	
0	0	0	0	0	511	507	0	446	38	12	
1	0	0	0	0	508	507	0	430	38	12	
2	0	0	0	0	509	507	0	440	38	12	
3	0	0	0	0	521	506	0	425	38	12	
4	0	0	0	0	510	504	0	385	38	12	
5	0	0	0	0	508	502	0	336	38	12	
6	0	0	0	0	515	503	0	313	38	12	
7	0	0	0	0	505	504	0	300	38	12	
8	0	0	0	0	505	506	0	329	38	12	
9	0	0	0	0	509	507	0	322	38	12	
10	0	0	0	0	505	507	0	339	38	12	
11	0	0	0	0	507	507	0	345	38	12	
12	0	0	0	0	505	508	0	378	38	12	
13	0	0	0	0	504	507	0	472	38	12	
14	0	0	0	0	513	507	0	591	38	12	
15	0	0	0	0	514	507	0	661	38	12	
0	0	0	0	0	511	507	0	628	38	12	
1	0	0	0	0	508	508	0	551	38	12	
2	0	0	0	0	508	506	0	480	38	12	
3	0	0	0	0	508	502	0	433	38	12	
4	0	0	0	0	505	499	0	391	38	12	
5	0	0	0	0	510	499	0	339	38	12	
6	0	0	0	0	511	503	0	300	38	12	
7	0	0	0	0	512	507	0	267	38	12	
8	0	0	0	0	511	508	0	253	38	12	
9	0	0	0	0	513	509	0	194	38	12	
10	0	0	0	0	510	511	0	126	38	12	
11	0	0	0	0	506	511	0	88	38	12	
12	0	0	0	0	511	513	0	98	38	12	
13	0	0	0	0	507	519	0	186	38	12	
14	0	0	0	0	507	523	0	295	38	12	
15	0	0	0	0	509	520	0	423	38	12	
0	0	0	0	0	507	517	0	548	38	12	
1	0	0	0	0	508	517	0	617	38	12	
2	0	0	0	0	509	518	0	672	38	12	
3	0	0	0	0	511	518	0	693	38	12	
4	0	0	0	0	508	518	0	583	38	12	
5	0	0	0	0	504	515	0	406	38	12	
6	0	0	0	0	507	514	0	240	38	12	
7	0	0	0	0	508	516	0	119	38	12	
8	0	0	0	0	514	515	0	54	38	12	
9	0	0	0	0	502	512	0	105	38	12	
10	0	0	0	0	511	513	0	208	38	12	
11	0	0	0	0	502	516	0	296	38	12	
12	0	0	0	0	516	519	0	427	38	12	
13	0	0	0	0	504	519	0	545	38	12	
14	0	0	0	0	514	518	0	619	38	13	
15	0	0	0	0	510	517	0	674	38	12	
0	0	0	0	0	499	520	0	710	38	12	
1	0	0	0	0	506	523	0	663	38	12	
2	0	0	0	0	504	525	0	608	38	12	
3	0	0	0	0	514	526	0	529	38	12	
4	0	0	0	0	508	526	0	501	38	12	
5	0	0	0	0	507	525	0	524	38	12	
6	0	0	0	0	506	527	0	636	38	12	
7	0	0	0	0	509	527	0	788	38	12	
8	0	0	0	0	506	524	0	910	38	12	
9	0	0	0	0	505	523	0	984	38	12	
10	0	0	0	0	509	525	0	1018	38	12	
11	0	0	0	0	513	527	0	1018	38	12	
12	0	0	0	0	504	524	0	1018	38	12	
13	0	0	0	0	516	519	0	1018	38	12	
14	0	0	0	0	513	519	0	1018	38	12	
15	0	0	0	0	503	521	0	1018	38	12	
0	0	0	0	0	509	521	0	946	38	12	
1	0	0	0	0	515	519	0	880	38	12	
2	0	0	0	0	510	519	0	835	38	12	
3	0	0	0	0	505	514	0	819	38	12	
4	0	0	0	0	504	513	0	791	38	12	
5	0	0	0	0	511	514	0	733	38	12	
6	0	0	0	0	506	514	0	707	38	12	
7	0	0	0	0	508	515	0	672	38	13	
8	0	0	0	0	507	517	0	575	38	12	
9	0	0	0	0	513	514	0	541	38	12	
10	0	0	0	0	512	510	0	557	38	12	
11	0	0	0	0	512	510	0	560	38	12	
12	0	0	0	0	513	508	0	587	38	12	
13	0	0	0	0	514	505	0	562	38	12	
14	0	0	0	0	508	505	0	422	38	12	
15	0	0	0	0	508	505	0	232	38	12	
0	0	0	0	0	514	506	0	27	38	12	
1	0	0	0	0	511	511	0	0	38	12	
2	0	0	0	0	503	513	0	0	38	12	
3	0	0	0	0	509	514	0	0	38	12	
4	0	0	0	0	512	515	0	0	38	12	
5	0	0	0	0	506	516	0	0	38	12	
6	0	0	0	0	503	515	0	261	38	12	
7	0	0	0	0	508	512	0	387	38	12	
8	0	0	0	0	509	510	0	528	38	12	
9	0	0	0	0	507	509	0	707	38	12	
10	0	0	0	0	511	507	0	881	38	12	
11	0	0	0	0	511	508	0	992	38	12	
12	0	0	0	0	508	507	0	1018	38	12	
13	0	0	0	0	506	503	0	1017	38	12	
14	0	0	0	0	505	501	0	1017	38	12	
15	0	0	0	0	506	500	0	807	38	12	
0	0	0	0	0	509	501	0	671	38	12	
1	0	0	0	0	513	502	0	559	38	12	
2	0	0	0	0	515	502	0	425	38	12	
3	0	0	0	0	507	502	0	317	38	12	
4	0	0	0	0	508	502	0	200	38	12	
5	0	0	0	0	513	503	0	63	38	12	
6	0	0	0	0	505	504	0	0	38	12	
7	0	0	0	0	511	504	0	0	38	12	
8	0	0	0	0	505	502	0	0	38	12	
9	0	0	0	0	513	501	0	0	38	12	
10	0	0	0	0	512	502	0	0	38	12	
11	0	0	0	0	510	502	0	0	38	12	
12	0	0	0	0	506	499	0	120	38	12	
13	0	0	0	0	506	496	0	222	38	12	
14	0	0	0	0	500	499	0	275	38	12	
15	0	0	0	0	508	505	0	320	38	12	
0	0	0	0	0	512	511	0	406	38	12	
1	0	0	0	0	511	502	0	492	38	12	
2	0	0	0	0	508	496	0	510	38	12	
3	0	0	0	0	504	494	0	521	38	12	
4	0	0	0	0	510	496	0	532	38	12	
5	0	0	0	0	515	498	0	546	38	12	
6	0	0	0	0	505	497	0	558	38	12	
7	0	0	0	0	509	496	0	537	38	12	
8	0	0	0	0	505	498	0	483	38	12	
9	0	0	0	0	514	498	0	491	38	13	
10	0	0	0	0	506	497	0	537	38	12	
11	0	0	0	0	512	496	0	606	38	12	
12	0	0	0	0	510	494	0	709	38	12	
13	0	0	0	0	510	492	0	844	38	12	
14	0	0	0	0	510	492	0	984	38	12	
15	0	0	0	0	516	496	0	1018	38	12	
0	0	0	0	0	501	500	0	1018	38	12	
1	0	0	0	0	503	502	0	1018	38	12	
2	0	0	0	0	510	502	0	1018	38	12	
3	0	0	0	0	507	499	0	930	38	12	
4	0	0	0	0	509	496	0	785	38	12	
5	0	0	0	0	513	497	0	679	38	12	
6	0	0	0	0	505	498	0	541	38	12	
7	0	0	0	0	506	498	0	309	38	12	
8	0	0	0	0	511	497	0	71	38	12	
9	0	0	0	0	511	496	0	0	38	12	
10	0	0	0	0	508	496	0	0	38	12	
11	0	0	0	0	509	495	0	0	38	12	
12	0	0	0	0	505	496	0	0	38	12	
13	0	0	0	0	505	498	0	0	38	12	
14	0	0	0	0	507	499	0	105	38	12	
15	0	0	0	0	505	500	0	234	38	12	
0	0	0	0	0	515	502	0	355	38	12	
1	0	0	0	0	507	503	0	532	38	12	
2	0	0	0	0	514	503	0	691	38	12	
3	0	0	0	0	513	502	0	837	38	12	
4	0	0	0	0	506	502	0	849	38	12	
5	0	0	0	0	505	499	0	755	38	12	
6	0	0	0	0	509	497	0	671	38	12	
7	0	0	0	0	508	494	0	560	38	12	
8	0	0	0	0	505	492	0	428	38	12	
9	0	0	0	0	508	492	0	308	38	12	
10	0	0	0	0	506	491	0	206	38	12	
11	0	0	0	0	509	490	0	163	38	12	
12	0	0	0	0	509	491	0	148	38	12	
13	0	0	0	0	504	494	0	192	38	12	
14	0	0	0	0	502	497	0	241	38	12	
15	0	0	0	0	516	496	0	212	38	12	
0	0	0	0	0	504	496	0	136	38	12	
1	0	0	0	0	510	499	0	86	38	12	
2	0	0	0	0	512	504	0	74	38	12	
3	0	0	0	0	510	510	0	125	38	12	
4	0	0	0	0	513	516	0	218	38	12	
5	0	0	0	0	510	519	0	349	38	12	
6	0	0	0	0	509	522	0	387	38	12	
7	0	0	0	0	517	526	0	387	38	12	
8	0	0	0	0	514	529	0	389	38	12	
9	0	0	0	0	515	535	0	376	38	12	
10	0	0	0	0	510	541	0	374	38	12	
11	0	0	0	0	505	545	0	367	38	12	
12	0	0	0	0	509	549	0	372	38	12	
13	0	0	0	0	505	551	0	436	38	12	
14	0	0	0	0	514	553	0	477	38	12	
15	0	0	0	0	508	553	0	503	38	12	
0	0	0	0	0	510	554	0	453	38	12	
1	0	0	0	0	503	556	0	392	38	12	
2	0	0	0	0	514	555	0	374	38	12	
3	0	0	0	0	504	551	0	393	38	12	
4	0	0	0	0	509	550	0	319	38	12	
5	0	0	0	0	508	551	0	206	38	12	
6	0	0	0	0	511	553	0	100	38	12	
7	0	0	0	0	512	553	0	16	38	12	
8	0	0	0	0	502	552	0	0	38	12	
9	0	0	0	0	509	553	0	0	38	12	
10	0	0	0	0	512	550	0	0	38	12	
11	0	0	0	0	507	540	0	0	38	12	
12	0	0	0	0	507	534	0	0	38	12	
13	0	0	0	0	503	526	0	0	38	12	
14	0	0	0	0	512	515	0	246	38	12	
15	0	0	0	0	510	504	0	352	38	12	
0	0	0	0	0	513	496	0	463	38	12	
1	0	0	0	0	505	489	0	601	38	12	
2	0	0	0	0	508	483	0	778	38	12	
3	0	0	0	0	511	471	0	949	38	12	
4	0	0	0	0	509	465	0	1018	38	12	
5	0	0	0	0	516	465	0	1018	38	12	
6	0	0	0	0	511	464	0	1018	38	12	
7	0	0	0	0	511	464	0	1018	38	12	
8	0	0	0	0	503	465	0	1017	38	12	
9	0	0	0	0	508	465	0	806	38	12	
10	0	0	0	0	511	465	0	708	38	12	
11	0	0	0	0	508	465	0	615	38	12	
12	0	0	0	0	508	465	0	507	38	12	
13	0	0	0	0	513	464	0	505	38	12	
14	0	0	0	0	510	465	0	540	38	12	
15	0	0	0	0	508	466	0	590	38	12	
0	0	0	0	0	508	465	0	599	38	12	
1	0	0	0	0	506	468	0	620	38	12	
2	0	0	0	0	511	471	0	619	38	12	
3	0	0	0	0	516	473	0	586	38	12	
4	0	0	0	0	504	474	0	583	38	12	
5	0	0	0	0	507	478	0	550	38	12	
6	0	0	0	0	507	480	0	583	38	12	
7	0	0	0	0	507	481	0	660	38	12	
8	0	0	0	0	512	482	0	767	38	12	
9	0	0	0	0	505	485	0	864	38	12	
10	0	0	0	0	507	487	0	945	38	12	
11	0	0	0	0	506	488	0	980	38	12	
12	0	0	0	0	512	488	0	984	38	12	
13	0	0	0	0	511	488	0	946	38	12	
14	0	0	0	0	513	490	0	960	38	12	
15	0	0	0	0	511	493	0	946	38	12	
0	0	0	0	0	503	496	0	886	38	12	
1	0	0	0	0	503	496	0	787	38	12	
2	0	0	0	0	508	499	0	691	38	12	
3	0	0	0	0	516	504	0	578	38	12	
4	0	0	0	0	509	504	0	476	38	12	
5	0	0	0	0	512	502	0	436	38	12	
6	0	0	0	0	510	500	0	487	38	12	
7	0	0	0	0	504	500	0	550	38	12	
8	0	0	0	0	502	501	0	565	38	12	
9	0	0	0	0	511	500	0	581	38	12	
10	0	0	0	0	508	500	0	612	38	12	
11	0	0	0	0	512	499	0	692	38	12	
12	0	0	0	0	506	501	0	803	38	12	
13	0	0	0	0	503	503	0	910	38	12	
14	0	0	0	0	508	504	0	978	38	12	
15	0	0	0	0	514	505	0	1012	38	12	
0	0	0	0	0	512	508	0	993	38	12	
1	0	0	0	0	505	510	0	908	38	12	
2	0	0	0	0	507	508	0	718	38	12	
3	0	0	0	0	509	506	0	470	38	12	
4	0	0	0	0	510	505	0	225	38	12	
5	0	0	0	0	515	504	0	47	38	12	
6	0	0	0	0	505	504	0	0	38	12	
7	0	0	0	0	513	503	0	0	38	12	
8	0	0	0	0	505	504	0	91	38	12	
9	0	0	0	0	513	511	0	262	38	12	
10	0	0	0	0	515	515	0	455	38	12	
11	0	0	0	0	512	513	0	606	38	12	
12	0	0	0	0	508	515	0	737	38	12	
13	0	0	0	0	503	508	0	804	38	12	
14	0	0	0	0	507	502	0	813	38	12	
15	0	0	0	0	511	506	0	840	38	12	
0	0	0	0	0	507	513	0	868	38	12	
1	0	0	0	0	515	513	0	920	38	12	
2	0	0	0	0	505	507	0	929	38	12	
3	0	0	0	0	508	508	0	889	38	12	
4	0	0	0	0	511	509	0	861	38	12	
5	0	0	0	0	518	511	0	858	38	12	
6	0	0	0	0	508	512	0	873	38	12	
7	0	0	0	0	506	512	0	865	38	12	
8	0	0	0	0	512	512	0	844	38	12	
9	0	0	0	0	504	513	0	824	38	12	
10	0	0	0	0	508	514	0	749	38	12	
11	0	0	0	0	510	512	0	651	38	12	
12	0	0	0	0	500	513	0	583	38	12	
13	0	0	0	0	508	513	0	578	38	12	
14	0	0	0	0	508	513	0	590	38	12	
15	0	0	0	0	503	512	0	591	38	12	
0	0	0	0	0	508	512	0	611	38	12	
1	0	0	0	0	505	513	0	651	38	12	
2	0	0	0	0	515	516	0	620	38	12	
3	0	0	0	0	513	517	0	622	38	12	
4	0	0	0	0	508	520	0	604	38	12	
5	0	0	0	0	510	523	0	595	38	12	
6	0	0	0	0	510	519	0	562	38	12	
7	0	0	0	0	510	515	0	510	38	12	
8	0	0	0	0	503	512	0	450	38	12	
9	0	0	0	0	511	511	0	326	38	12	
10	0	0	0	0	507	512	0	298	38	12	
11	0	0	0	0	501	513	0	377	38	12	
12	0	0	0	0	504	516	0	504	38	12	
13	0	0	0	0	514	519	0	627	38	12	
14	0	0	0	0	517	520	0	752	38	12	
15	0	0	0	0	508	519	0	865	38	12	
0	0	0	0	0	511	515	0	944	38	12	
1	0	0	0	0	505	513	0	1017	38	12	
2	0	0	0	0	510	512	0	1018	38	12	
3	0	0	0	0	506	513	0	1018	38	12	
4	0	0	0	0	502	516	0	1018	38	12	
5	0	0	0	0	507	515	0	1018	38	12	
6	0	0	0	0	511	514	0	1018	38	12	
7	0	0	0	0	511	514	0	1018	38	12	
8	0	0	0	0	508	513	0	1018	38	12	
9	0	0	0	0	512	513	0	1018	38	12	
10	0	0	0	0	513	511	0	1018	38	12	
11	0	0	0	0	512	512	0	1018	38	12	
12	0	0	0	0	509	513	0	1018	38	12	
13	0	0	0	0	511	513	0	1018	38	12	
14	0	0	0	0	503	513	0	1018	38	12	
15	0	0	0	0	508	512	0	1018	38	12	
0	0	0	0	0	512	510	0	1018	38	12	
1	0	0	0	0	509	512	0	1018	38	12	
2	0	0	0	0	504	516	0	1018	38	12	
3	0	0	0	0	510	521	0	1018	38	12	
4	0	0	0	0	510	524	0	848	38	12	
5	0	0	0	0	506	524	0	715	38	12	
6	0	0	0	0	513	519	0	612	38	12	
7	0	0	0	0	512	518	0	492	38	12	
8	0	0	0	0	510	517	0	425	38	12	
9	0	0	0	0	518	518	0	430	38	12	
10	0	0	0	0	510	518	0	511	38	12	
11	0	0	0	0	508	518	0	606	38	12	
12	0	0	0	0	510	519	0	709	38	12	
13	0	0	0	0	508	518	0	821	38	12	
14	0	0	0	0	504	518	0	916	38	12	
15	0	0	0	0	510	516	0	967	38	12	
0	0	0	0	0	508	515	0	930	38	12	
1	0	0	0	0	501	515	0	862	38	12	
2	0	0	0	0	502	518	0	759	38	12	
3	0	0	0	0	505	519	0	612	38	12	
4	0	0	0	0	508	518	0	439	38	12	
5	0	0	0	0	508	517	0	254	38	12	
6	0	0	0	0	507	519	0	178	38	12	
7	0	0	0	0	515	519	0	185	38	12	
8	0	0	0	0	506	519	0	285	38	12	
9	0	0	0	0	506	517	0	407	38	12	
10	0	0	0	0	505	515	0	516	38	12	
11	0	0	0	0	507	513	0	636	38	12	
12	0	0	0	0	511	512	0	727	38	12	
13	0	0	0	0	506	515	0	765	38	12	
14	0	0	0	0	510	519	0	777	38	12	
15	0	0	0	0	511	519	0	775	38	12	
0	0	0	0	0	508	520	0	748	38	12	
1	0	0	0	0	509	520	0	742	38	12	
2	0	0	0	0	515	518	0	689	38	12	
3	0	0	0	0	508	516	0	644	38	12	
4	0	0	0	0	512	517	0	619	38	12	
5	0	0	0	0	500	518	0	588	38	12	
6	0	0	0	0	512	519	0	561	38	12	
7	0	0	0	0	504	519	0	534	38	12	
8	0	0	0	0	505	518	0	517	38	12	
9	0	0	0	0	506	517	0	530	38	12	
10	0	0	0	0	515	517	0	519	38	12	
11	0	0	0	0	514	517	0	502	38	12	
12	0	0	0	0	504	518	0	469	38	12	
13	0	0	0	0	508	518	0	457	38	12	
14	0	0	0	0	511	519	0	499	38	12	
15	0	0	0	0	505	523	0	620	38	12	
0	0	0	0	0	510	526	0	737	38	12	
1	0	0	0	0	517	527	0	827	38	12	
2	0	0	0	0	516	525	0	874	38	12	
3	0	0	0	0	508	525	0	898	38	12	
4	0	0	0	0	511	529	0	857	38	12	
5	0	0	0	0	514	531	0	756	38	12	
6	0	0	0	0	506	527	0	652	38	12	
7	0	0	0	0	504	524	0	588	38	12	
8	0	0	0	0	506	523	0	588	38	12	
9	0	0	0	0	509	525	0	601	38	12	
10	0	0	0	0	505	528	0	563	38	12	
11	0	0	0	0	512	528	0	409	38	12	
12	0	0	0	0	513	526	0	224	38	12	
13	0	0	0	0	508	528	0	118	38	12	
14	0	0	0	0	507	532	0	159	38	12	
15	0	0	0	0	504	534	0	206	38	12	
0	0	0	0	0	508	530	0	266	38	12	
1	0	0	0	0	510	529	0	324	38	12	
2	0	0	0	0	505	530	0	385	38	12	
3	0	0	0	0	509	529	0	447	38	12	
4	0	0	0	0	517	524	0	497	38	12	
5	0	0	0	0	506	521	0	435	38	12	
6	0	0	0	0	511	520	0	275	38	12	
7	0	0	0	0	510	521	0	115	38	12	
8	0	0	0	0	506	523	0	0	38	12	
9	0	0	0	0	511	521	0	0	38	12	
10	0	0	0	0	510	523	0	0	38	12	
11	0	0	0	0	511	521	0	0	38	12	
12	0	0	0	0	506	521	0	0	38	12	
13	0	0	0	0	503	520	0	0	38	12	
14	0	0	0	0	507	521	0	0	38	12	
15	0	0	0	0	511	521	0	0	38	12	
0	0	0	0	0	510	521	0	86	38	12	
1	0	0	0	0	507	523	0	142	38	12	
2	0	0	0	0	500	523	0	240	38	12	
3	0	0	0	0	506	521	0	325	38	12	
4	0	0	0	0	504	523	0	326	38	12	
5	0	0	0	0	512	528	0	378	38	12	
6	0	0	0	0	508	533	0	458	38	12	
7	0	0	0	0	509	534	0	440	38	12	
8	0	0	0	0	502	531	0	394	38	12	
9	0	0	0	0	512	528	0	305	38	12	
10	0	0	0	0	510	525	0	235	38	12	
11	0	0	0	0	507	524	0	159	38	12	
12	0	0	0	0	504	525	0	87	38	12	
13	0	0	0	0	514	525	0	39	38	12	
14	0	0	0	0	508	526	0	55	38	12	
15	0	0	0	0	511	527	0	23	38	12	
0	0	0	0	0	513	526	0	0	38	12	
1	0	0	0	0	508	525	0	0	38	12	
2	0	0	0	0	500	528	0	0	38	12	
3	0	0	0	0	514	529	0	0	38	12	
4	0	0	0	0	515	529	0	0	38	12	
5	0	0	0	0	507	528	0	0	38	12	
6	0	0	0	0	514	529	0	0	38	12	
7	0	0	0	0	511	528	0	83	38	12	
8	0	0	0	0	505	519	0	172	38	12	
9	0	0	0	0	510	518	0	287	38	12	
10	0	0	0	0	505	518	0	377	38	12	
11	0	0	0	0	505	516	0	455	38	12	
12	0	0	0	0	503	514	0	537	38	12	
13	0	0	0	0	513	512	0	604	38	12	
14	0	0	0	0	512	515	0	591	38	12	
15	0	0	0	0	514	519	0	492	38	12	
0	0	0	0	0	513	519	0	444	38	12	
1	0	0	0	0	508	516	0	433	38	12	
2	0	0	0	0	504	517	0	450	38	12	
3	0	0	0	0	505	514	0	467	38	12	
4	0	0	0	0	514	513	0	487	38	12	
5	0	0	0	0	508	518	0	491	38	12	
6	0	0	0	0	506	520	0	528	38	12	
7	0	0	0	0	510	516	0	615	38	12	
8	0	0	0	0	509	513	0	723	38	12	
9	0	0	0	0	508	512	0	813	38	12	
10	0	0	0	0	502	510	0	841	38	12	
11	0	0	0	0	507	508	0	837	38	12	
12	0	0	0	0	512	510	0	833	38	12	
13	0	0	0	0	511	512	0	823	38	12	
14	0	0	0	0	508	511	0	806	38	12	
15	0	0	0	0	508	506	0	836	38	12	
0	0	0	0	0	508	502	0	797	38	12	
1	0	0	0	0	509	500	0	723	38	12	
2	0	0	0	0	508	499	0	644	38	12	
3	0	0	0	0	514	499	0	583	38	12	
4	0	0	0	0	508	501	0	436	38	12	
5	0	0	0	0	501	500	0	265	38	12	
6	0	0	0	0	512	501	0	144	38	12	
7	0	0	0	0	513	500	0	88	38	12	
8	0	0	0	0	511	498	0	39	38	12	
9	0	0	0	0	513	499	0	0	38	12	
10	0	0	0	0	506	499	0	0	38	12	
11	0	0	0	0	509	500	0	0	38	12	
12	0	0	0	0	511	500	0	0	38	12	
13	0	0	0	0	504	494	0	0	38	12	
14	0	0	0	0	506	492	0	0	38	12	
15	0	0	0	0	508	491	0	0	38	12	
0	0	0	0	0	513	488	0	136	38	12	
1	0	0	0	0	506	486	0	260	38	12	
2	0	0	0	0	506	486	0	369	38	12	
3	0	0	0	0	509	488	0	404	38	12	
4	0	0	0	0	508	490	0	383	38	12	
5	0	0	0	0	508	489	0	310	38	12	
6	0	0	0	0	507	489	0	288	38	12	
7	0	0	0	0	509	487	0	308	38	12	
8	0	0	0	0	508	487	0	325	38	12	
9	0	0	0	0	511	487	0	293	38	12	
10	0	0	0	0	509	492	0	272	38	12	
11	0	0	0	0	511	496	0	293	38	12	
12	0	0	0	0	504	494	0	381	38	12	
13	0	0	0	0	507	488	0	466	38	12	
14	0	0	0	0	510	484	0	471	38	12	
15	0	0	0	0	509	482	0	382	38	12	
0	0	0	0	0	514	479	0	254	38	12	
1	0	0	0	0	506	480	0	140	38	12	
2	0	0	0	0	503	481	0	0	38	12	
3	0	0	0	0	508	482	0	0	38	12	
4	0	0	0	0	515	482	0	0	38	12	
5	0	0	0	0	508	480	0	0	38	12	
6	0	0	0	0	506	479	0	0	38	12	
7	0	0	0	0	505	481	0	0	38	12	
8	0	0	0	0	507	485	0	0	38	12	
9	0	0	0	0	511	484	0	17	38	12	
10	0	0	0	0	514	484	0	0	38	12	
11	0	0	0	0	507	484	0	0	38	12	
12	0	0	0	0	502	483	0	0	38	12	
13	0	0	0	0	514	482	0	0	38	12	
14	0	0	0	0	510	480	0	0	38	12	
15	0	0	0	0	505	479	0	0	38	12	
0	0	0	0	0	507	479	0	0	38	12	
1	0	0	0	0	507	480	0	0	38	12	
2	0	0	0	0	511	481	0	0	38	12	
3	0	0	0	0	509	483	0	0	38	12	
4	0	0	0	0	507	487	0	0	38	12	
5	0	0	0	0	507	492	0	0	38	12	
6	0	0	0	0	508	495	0	0	38	12	
7	0	0	0	0	512	497	0	0	38	12	
8	0	0	0	0	514	499	0	0	38	12	
9	0	0	0	0	512	496	0	0	38	12	
10	0	0	0	0	512	493	0	0	38	12	
11	0	0	0	0	504	490	0	0	38	12	
12	0	0	0	0	506	488	0	0	38	12	
13	0	0	0	0	510	490	0	0	38	12	
14	0	0	0	0	504	490	0	0	38	12	
15	0	0	0	0	503	486	0	0	38	12	
0	0	0	0	0	504	480	0	0	38	12	
1	0	0	0	0	506	479	0	0	38	12	
2	0	0	0	0	512	483	0	0	38	12	
3	0	0	0	0	518	486	0	0	38	12	
4	0	0	0	0	507	484	0	0	38	12	
5	0	0	0	0	515	484	0	0	38	12	
6	0	0	0	0	508	484	0	0	38	12	
7	0	0	0	0	506	484	0	0	38	12	
8	0	0	0	0	505	484	0	0	38	12	
9	0	0	0	0	509	483	0	0	38	12	
10	0	0	0	0	502	484	0	0	38	12	
11	0	0	0	0	510	487	0	0	38	12	
12	0	0	0	0	505	487	0	0	38	12	
13	0	0	0	0	505	487	0	0	38	12	
14	0	0	0	0	507	488	0	0	38	12	
15	0	0	0	0	509	488	0	0	38	12	
0	0	0	0	0	512	490	0	180	38	12	
1	0	0	0	0	514	493	0	374	38	12	
2	0	0	0	0	507	499	0	594	38	12	
3	0	0	0	0	508	499	0	821	38	12	
4	0	0	0	0	515	497	0	1017	38	12	
5	0	0	0	0	518	497	0	1018	38	12	
6	0	0	0	0	505	494	0	1018	38	12	
7	0	0	0	0	504	490	0	1018	38	12	
8	0	0	0	0	507	489	0	1018	38	12	
9	0	0	0	0	504	491	0	1018	38	12	
10	0	0	0	0	508	494	0	1018	38	12	
11	0	0	0	0	511	494	0	1018	38	12	
12	0	0	0	0	512	493	0	1018	38	12	
13	0	0	0	0	510	493	0	1018	38	12	
14	0	0	0	0	511	493	0	1018	38	12	
15	0	0	0	0	511	491	0	1018	38	12	
0	0	0	0	0	506	491	0	1018	38	12	
1	0	0	0	0	510	491	0	1018	38	12	
2	0	0	0	0	516	495	0	1018	38	12	
3	0	0	0	0	507	496	0	1018	38	12	
4	0	0	0	0	502	493	0	1018	38	12	
5	0	0	0	0	503	495	0	1018	38	12	
6	0	0	0	0	511	494	0	1017	38	12	
7	0	0	0	0	509	491	0	840	38	12	
8	0	0	0	0	515	492	0	662	38	12	
9	0	0	0	0	507	492	0	521	38	12	
10	0	0	0	0	515	493	0	509	38	12	
11	0	0	0	0	505	493	0	576	38	12	
12	0	0	0	0	514	494	0	619	38	12	
13	0	0	0	0	504	494	0	647	38	12	
14	0	0	0	0	516	492	0	715	38	12	
15	0	0	0	0	505	493	0	794	38	12	
0	0	0	0	0	505	492	0	804	38	12	
1	0	0	0	0	507	493	0	803	38	12	
2	0	0	0	0	504	496	0	787	38	12	
3	0	0	0	0	508	497	0	784	38	12	
4	0	0	0	0	503	497	0	839	38	12	
5	0	0	0	0	505	499	0	917	38	12	
6	0	0	0	0	514	501	0	988	38	12	
7	0	0	0	0	510	502	0	1018	38	12	
8	0	0	0	0	510	500	0	1018	38	12	
9	0	0	0	0	504	496	0	1018	38	12	
10	0	0	0	0	510	495	0	1018	38	12	
11	0	0	0	0	512	495	0	1018	38	12	
12	0	0	0	0	509	496	0	1017	38	12	
13	0	0	0	0	504	496	0	867	38	12	
14	0	0	0	0	514	496	0	762	38	12	
15	0	0	0	0	510	496	0	700	38	12	
0	0	0	0	0	510	493	0	712	38	12	
1	0	0	0	0	508	492	0	719	38	12	
2	0	0	0	0	508	496	0	740	38	12	
3	0	0	0	0	501	498	0	722	38	12	
4	0	0	0	0	507	497	0	670	38	12	
5	0	0	0	0	509	497	0	587	38	12	
6	0	0	0	0	507	499	0	443	38	12	
7	0	0	0	0	512	500	0	286	38	12	
8	0	0	0	0	505	502	0	96	38	12	
9	0	0	0	0	508	504	0	0	38	12	
10	0	0	0	0	506	507	0	0	38	12	
11	0	0	0	0	507	505	0	86	38	12	
12	0	0	0	0	512	502	0	105	38	12	
13	0	0	0	0	509	503	0	113	38	12	
14	0	0	0	0	510	507	0	217	38	12	
15	0	0	0	0	508	504	0	391	38	12	
0	0	0	0	0	503	499	0	563	38	12	
1	0	0	0	0	508	498	0	695	38	12	
2	0	0	0	0	514	499	0	790	38	12	
3	0	0	0	0	511	499	0	812	38	12	
4	0	0	0	0	514	498	0	824	38	12	
5	0	0	0	0	507	497	0	805	38	12	
6	0	0	0	0	508	497	0	739	38	12	
7	0	0	0	0	502	497	0	688	38	12	
8	0	0	0	0	505	498	0	637	38	12	
9	0	0	0	0	508	499	0	614	38	12	
10	0	0	0	0	506	501	0	639	38	12	
11	0	0	0	0	510	505	0	702	38	12	
12	0	0	0	0	510	504	0	688	38	12	
13	0	0	0	0	518	503	0	639	38	12	
14	0	0	0	0	515	503	0	554	38	12	
15	0	0	0	0	509	503	0	529	38	12	
0	0	0	0	0	502	499	0	546	38	12	
1	0	0	0	0	505	499	0	572	38	12	
2	0	0	0	0	512	501	0	636	38	12	
3	0	0	0	0	511	501	0	728	38	12	
4	0	0	0	0	510	502	0	785	38	12	
5	0	0	0	0	505	503	0	839	38	12	
6	0	0	0	0	505	503	0	899	38	12	
7	0	0	0	0	509	501	0	928	38	12	
8	0	0	0	0	507	500	0	927	38	12	
9	0	0	0	0	509	502	0	897	38	12	
10	0	0	0	0	514	504	0	871	38	12	
11	0	0	0	0	505	504	0	867	38	12	
12	0	0	0	0	508	504	0	906	38	12	
13	0	0	0	0	507	505	0	979	38	12	
14	0	0	0	0	509	508	0	1017	38	12	
15	0	0	0	0	510	512	0	1018	38	12	
0	0	0	0	0	510	514	0	1018	38	12	
1	0	0	0	0	508	512	0	1018	38	12	
2	0	0	0	0	510	508	0	1018	38	12	
3	0	0	0	0	503	508	0	1018	38	12	
4	0	0	0	0	513	505	0	1018	38	12	
5	0	0	0	0	507	503	0	1018	38	12	
6	0	0	0	0	514	507	0	1018	38	12	
7	0	0	0	0	506	508	0	1018	38	12	
8	0	0	0	0	511	504	0	973	38	12	
9	0	0	0	0	516	503	0	950	38	12	
10	0	0	0	0	510	506	0	935	38	12	
11	0	0	0	0	506	508	0	899	38	12	
12	0	0	0	0	513	511	0	868	38	12	
13	0	0	0	0	501	513	0	789	38	12	
14	0	0	0	0	508	510	0	590	38	12	
15	0	0	0	0	507	506	0	346	38	12	
0	0	0	0	0	511	504	0	118	38	12	
1	0	0	0	0	509	502	0	0	38	12	
2	0	0	0	0	509	500	0	0	38	12	
3	0	0	0	0	508	501	0	0	38	12	
4	0	0	0	0	508	507	0	0	38	12	
5	0	0	0	0	509	509	0	0	38	12	
6	0	0	0	0	513	508	0	0	38	12	
7	0	0	0	0	509	512	0	0	38	12	
8	0	0	0	0	509	515	0	0	38	12	
9	0	0	0	0	505	512	0	0	38	12	
10	0	0	0	0	514	509	0	0	38	12	
11	0	0	0	0	508	511	0	0	38	12	
12	0	0	0	0	501	515	0	0	38	12	
13	0	0	0	0	509	516	0	0	38	12	
14	0	0	0	0	504	516	0	0	38	12	
15	0	0	0	0	509	516	0	0	38	12	
0	0	0	0	0	513	519	0	0	38	12	
1	0	0	0	0	512	523	0	0	38	12	
2	0	0	0	0	508	524	0	0	38	12	
3	0	0	0	0	510	527	0	0	38	12	
4	0	0	0	0	511	521	0	118	38	12	
5	0	0	0	0	510	512	0	213	38	12	
6	0	0	0	0	505	512	0	296	38	12	
7	0	0	0	0	510	514	0	395	38	12	
8	0	0	0	0	514	515	0	458	38	12	
9	0	0	0	0	514	515	0	366	38	12	
10	0	0	0	0	506	515	0	248	38	12	
11	0	0	0	0	508	514	0	166	38	12	
12	0	0	0	0	508	515	0	115	38	12	
13	0	0	0	0	512	515	0	132	38	12	
14	0	0	0	0	511	515	0	225	38	12	
15	0	0	0	0	507	516	0	321	38	12	
0	0	0	0	0	507	517	0	433	38	12	
1	0	0	0	0	513	517	0	530	38	12	
2	0	0	0	0	510	515	0	643	38	12	
3	0	0	0	0	508	513	0	784	38	12	
4	0	0	0	0	508	510	0	899	38	12	
5	0	0	0	0	509	509	0	1016	38	12	
6	0	0	0	0	501	509	0	1018	38	12	
7	0	0	0	0	506	513	0	1018	38	12	
8	0	0	0	0	511	512	0	1017	38	12	
9	0	0	0	0	508	510	0	1017	38	12	
10	0	0	0	0	507	510	0	861	38	12	
11	0	0	0	0	505	513	0	735	38	12	
12	0	0	0	0	508	512	0	619	38	12	
13	0	0	0	0	511	510	0	529	38	12	
14	0	0	0	0	516	513	0	518	38	12	
15	0	0	0	0	509	514	0	505	38	12	
0	0	0	0	0	506	514	0	508	38	12	
1	0	0	0	0	513	517	0	527	38	12	
2	0	0	0	0	507	512	0	611	38	12	
3	0	0	0	0	513	507	0	670	38	12	
4	0	0	0	0	505	505	0	728	38	12	
5	0	0	0	0	506	505	0	758	38	12	
6	0	0	0	0	508	505	0	720	38	12	
7	0	0	0	0	507	504	0	702	38	12	
8	0	0	0	0	505	502	0	702	38	12	
9	0	0	0	0	512	500	0	702	38	12	
10	0	0	0	0	511	499	0	710	38	12	
11	0	0	0	0	512	499	0	755	38	12	
12	0	0	0	0	509	497	0	834	38	12	
13	0	0	0	0	511	498	0	902	38	12	
14	0	0	0	0	509	499	0	928	38	12	
15	0	0	0	0	508	501	0	962	38	12	
0	0	0	0	0	511	501	0	982	38	12	
1	0	0	0	0	513	503	0	1013	38	12	
2	0	0	0	0	509	503	0	1017	38	12	
3	0	0	0	0	502	502	0	988	38	12	
4	0	0	0	0	508	505	0	997	38	12	
5	0	0	0	0	508	510	0	1003	38	12	
6	0	0	0	0	510	507	0	1018	38	12	
7	0	0	0	0	508	507	0	1018	38	12	
8	0	0	0	0	508	507	0	1018	38	12	
9	0	0	0	0	508	506	0	1018	38	12	
10	0	0	0	0	509	509	0	923	38	12	
11	0	0	0	0	508	511	0	910	38	12	
12	0	0	0	0	510	506	0	935	38	12	
13	0	0	0	0	510	502	0	930	38	12	
14	0	0	0	0	504	499	0	934	38	12	
15	0	0	0	0	508	500	0	912	38	12	
0	0	0	0	0	507	501	0	833	38	12	
1	0	0	0	0	505	504	0	758	38	12	
2	0	0	0	0	518	509	0	733	38	12	
3	0	0	0	0	515	509	0	722	38	12	
4	0	0	0	0	508	505	0	718	38	12	
5	0	0	0	0	510	502	0	712	38	12	
6	0	0	0	0	509	499	0	694	38	12	
7	0	0	0	0	509	495	0	662	38	12	
8	0	0	0	0	507	494	0	595	38	12	
9	0	0	0	0	508	495	0	476	38	12	
10	0	0	0	0	508	496	0	360	38	12	
11	0	0	0	0	505	495	0	339	38	12	
12	0	0	0	0	512	498	0	415	38	12	
13	0	0	0	0	502	502	0	525	38	12	
14	0	0	0	0	507	500	0	665	38	12	
15	0	0	0	0	511	501	0	804	38	12	
0	0	0	0	0	508	504	0	926	38	12	
1	0	0	0	0	514	503	0	1017	38	12	
2	0	0	0	0	511	499	0	1018	38	12	
3	0	0	0	0	507	500	0	1018	38	12	
4	0	0	0	0	513	505	0	1018	38	12	
5	0	0	0	0	506	508	0	1018	38	12	
6	0	0	0	0	506	504	0	1018	38	12	
7	0	0	0	0	510	504	0	1018	38	12	
8	0	0	0	0	505	510	0	1018	38	12	
9	0	0	0	0	511	508	0	1018	38	12	
10	0	0	0	0	504	504	0	1018	38	12	
11	0	0	0	0	512	500	0	1018	38	12	
12	0	0	0	0	509	498	0	1018	38	12	
13	0	0	0	0	512	500	0	1018	38	12	
14	0	0	0	0	510	503	0	1018	38	12	
15	0	0	0	0	504	504	0	1018	38	12	
0	0	0	0	0	508	504	0	1018	38	12	
1	0	0	0	0	507	501	0	1018	38	12	
2	0	0	0	0	509	497	0	1018	38	12	
3	0	0	0	0	513	493	0	1018	38	12	
4	0	0	0	0	512	487	0	1018	38	12	
5	0	0	0	0	508	484	0	1018	38	12	
6	0	0	0	0	512	481	0	1018	38	12	
7	0	0	0	0	502	483	0	1018	38	12	
8	0	0	0	0	508	485	0	1018	38	12	
9	0	0	0	0	507	487	0	1018	38	12	
10	0	0	0	0	518	490	0	1018	38	12	
11	0	0	0	0	509	492	0	1018	38	12	
12	0	0	0	0	513	496	0	1017	38	12	
13	0	0	0	0	511	498	0	890	38	12	
14	0	0	0	0	510	499	0	866	38	12	
15	0	0	0	0	504	505	0	833	38	12	
0	0	0	0	0	504	508	0	758	38	12	
1	0	0	0	0	507	513	0	698	38	12	
2	0	0	0	0	512	515	0	663	38	12	
3	0	0	0	0	511	519	0	651	38	12	
4	0	0	0	0	513	524	0	672	38	12	
5	0	0	0	0	508	529	0	733	38	12	
6	0	0	0	0	505	529	0	810	38	12	
7	0	0	0	0	504	530	0	889	38	12	
8	0	0	0	0	507	534	0	913	38	12	
9	0	0	0	0	510	536	0	851	38	12	
10	0	0	0	0	508	537	0	796	38	12	
11	0	0	0	0	503	539	0	770	38	12	
12	0	0	0	0	504	543	0	773	38	12	
13	0	0	0	0	504	545	0	762	38	12	
14	0	0	0	0	514	547	0	750	38	12	
15	0	0	0	0	508	548	0	721	38	12	
0	0	0	0	0	508	550	0	687	38	12	
1	0	0	0	0	511	548	0	646	38	12	
2	0	0	0	0	512	548	0	564	38	12	
3	0	0	0	0	508	552	0	446	38	12	
4	0	0	0	0	508	551	0	353	38	12	
5	0	0	0	0	508	551	0	306	38	12	
6	0	0	0	0	510	560	0	316	38	12	
7	0	0	0	0	505	561	0	298	38	12	
8	0	0	0	0	511	556	0	289	38	12	
9	0	0	0	0	505	550	0	265	38	12	
10	0	0	0	0	512	542	0	277	38	12	
11	0	0	0	0	508	528	0	297	38	12	
12	0	0	0	0	507	515	0	292	38	12	
13	0	0	0	0	515	505	0	350	38	12	
14	0	0	0	0	507	496	0	348	38	12	
15	0	0	0	0	504	491	0	345	38	12	
0	0	0	0	0	512	489	0	377	38	12	
1	0	0	0	0	508	485	0	398	38	12	
2	0	0	0	0	509	482	0	509	38	12	
3	0	0	0	0	506	480	0	622	38	12	
4	0	0	0	0	505	480	0	698	38	12	
5	0	0	0	0	511	480	0	780	38	12	
6	0	0	0	0	508	480	0	830	38	12	
7	0	0	0	0	513	479	0	849	38	12	
8	0	0	0	0	513	475	0	836	38	12	
9	0	0	0	0	510	473	0	797	38	12	
10	0	0	0	0	508	471	0	819	38	12	
11	0	0	0	0	511	469	0	861	38	12	
12	0	0	0	0	507	472	0	806	38	12	
13	0	0	0	0	504	471	0	741	38	12	
14	0	0	0	0	511	468	0	703	38	12	
15	0	0	0	0	509	473	0	721	38	12	
0	0	0	0	0	513	477	0	703	38	12	
1	0	0	0	0	503	481	0	679	38	12	
2	0	0	0	0	510	483	0	609	38	12	
3	0	0	0	0	510	486	0	499	38	12	
4	0	0	0	0	509	488	0	377	38	12	
5	0	0	0	0	503	487	0	287	38	12	
6	0	0	0	0	514	485	0	257	38	12	
7	0	0	0	0	510	485	0	243	38	12	
8	0	0	0	0	505	485	0	244	38	12	
9	0	0	0	0	509	486	0	252	38	12	
10	0	0	0	0	502	489	0	228	38	12	
11	0	0	0	0	510	493	0	169	38	12	
12	0	0	0	0	510	495	0	85	38	12	
13	0	0	0	0	513	495	0	0	38	12	
14	0	0	0	0	515	492	0	0	38	12	
15	0	0	0	0	511	489	0	0	38	12	
0	0	0	0	0	509	488	0	0	38	12	
1	0	0	0	0	510	491	0	0	38	12	
2	0	0	0	0	514	492	0	0	38	12	
3	0	0	0	0	511	492	0	0	38	12	
4	0	0	0	0	506	494	0	0	38	12	
5	0	0	0	0	509	496	0	128	38	12	
6	0	0	0	0	507	497	0	284	38	12	
7	0	0	0	0	514	496	0	354	38	12	
8	0	0	0	0	508	497	0	440	38	12	
9	0	0	0	0	500	502	0	583	38	12	
10	0	0	0	0	508	508	0	705	38	12	
11	0	0	0	0	505	512	0	796	38	12	
12	0	0	0	0	510	508	0	828	38	12	
13	0	0	0	0	510	504	0	832	38	12	
14	0	0	0	0	507	500	0	868	38	12	
15	0	0	0	0	505	499	0	944	38	12	
0	0	0	0	0	502	500	0	921	38	12	
1	0	0	0	0	502	502	0	757	38	12	
2	0	0	0	0	512	503	0	541	38	12	
3	0	0	0	0	508	506	0	312	38	12	
4	0	0	0	0	510	509	0	125	38	12	
5	0	0	0	0	514	512	0	0	38	12	
6	0	0	0	0	509	511	0	0	38	12	
7	0	0	0	0	504	507	0	0	38	12	
8	0	0	0	0	509	504	0	0	38	12	
9	0	0	0	0	510	504	0	0	38	12	
10	0	0	0	0	510	507	0	0	38	12	
11	0	0	0	0	509	510	0	0	38	12	
12	0	0	0	0	509	509	0	110	38	12	
13	0	0	0	0	512	506	0	262	38	12	
14	0	0	0	0	512	507	0	385	38	12	
15	0	0	0	0	511	508	0	445	38	12	
0	0	0	0	0	507	506	0	469	38	12	
1	0	0	0	0	513	505	0	454	38	12	
2	0	0	0	0	515	505	0	446	38	12	
3	0	0	0	0	509	505	0	501	38	12	
4	0	0	0	0	507	505	0	583	38	12	
5	0	0	0	0	502	506	0	657	38	12	
6	0	0	0	0	505	508	0	712	38	12	
7	0	0	0	0	508	508	0	782	38	12	
8	0	0	0	0	504	510	0	804	38	12	
9	0	0	0	0	517	509	0	835	38	12	
10	0	0	0	0	510	509	0	835	38	12	
11	0	0	0	0	515	510	0	843	38	12	
12	0	0	0	0	510	514	0	867	38	12	
13	0	0	0	0	510	515	0	862	38	12	
14	0	0	0	0	504	512	0	812	38	12	
15	0	0	0	0	505	513	0	671	38	12	
0	0	0	0	0	513	513	0	550	38	12	
1	0	0	0	0	511	512	0	444	38	12	
2	0	0	0	0	511	511	0	340	38	12	
3	0	0	0	0	511	508	0	263	38	12	
4	0	0	0	0	507	507	0	242	38	12	
5	0	0	0	0	508	507	0	243	38	12	
6	0	0	0	0	504	508	0	255	38	12	
7	0	0	0	0	512	509	0	274	38	12	
8	0	0	0	0	506	512	0	253	38	12	
9	0	0	0	0	512	514	0	190	38	12	
10	0	0	0	0	506	516	0	135	38	12	
11	0	0	0	0	505	516	0	129	38	12	
12	0	0	0	0	505	514	0	129	38	12	
13	0	0	0	0	507	508	0	109	38	12	
14	0	0	0	0	512	509	0	69	38	12	
15	0	0	0	0	506	509	0	21	38	12	
0	0	0	0	0	519	511	0	40	38	12	
1	0	0	0	0	513	512	0	94	38	12	
2	0	0	0	0	508	513	0	199	38	12	
3	0	0	0	0	505	513	0	243	38	12	
4	0	0	0	0	506	513	0	246	38	12	
5	0	0	0	0	506	512	0	216	38	12	
6	0	0	0	0	510	512	0	197	38	12	
7	0	0	0	0	504	512	0	139	38	12	
8	0	0	0	0	512	515	0	51	38	12	
9	0	0	0	0	510	520	0	2	38	12	
10	0	0	0	0	508	518	0	0	38	12	
11	0	0	0	0	514	517	0	0	38	12	
12	0	0	0	0	504	515	0	0	38	12	
13	0	0	0	0	506	516	0	0	38	12	
14	0	0	0	0	503	516	0	0	38	12	
15	0	0	0	0	510	514	0	0	38	12	
0	0	0	0	0	508	517	0	0	38	12	
1	0	0	0	0	508	517	0	0	38	12	
2	0	0	0	0	505	517	0	88	38	12	
3	0	0	0	0	509	517	0	160	38	12	
4	0	0	0	0	510	517	0	213	38	12	
5	0	0	0	0	510	514	0	231	38	12	
6	0	0	0	0	514	513	0	307	38	12	
7	0	0	0	0	509	513	0	317	38	12	
8	0	0	0	0	507	517	0	315	38	12	
9	0	0	0	0	510	519	0	365	38	12	
10	0	0	0	0	513	520	0	465	38	12	
11	0	0	0	0	511	521	0	566	38	12	
12	0	0	0	0	511	523	0	567	38	12	
13	0	0	0	0	509	522	0	526	38	12	
14	0	0	0	0	505	523	0	474	38	12	
15	0	0	0	0	505	527	0	389	38	12	
0	0	0	0	0	504	528	0	367	38	12	
1	0	0	0	0	512	527	0	393	38	12	
2	0	0	0	0	512	529	0	393	38	12	
3	0	0	0	0	509	530	0	452	38	12	
4	0	0	0	0	512	532	0	486	38	12	
5	0	0	0	0	506	531	0	494	38	12	
6	0	0	0	0	508	525	0	519	38	12	
7	0	0	0	0	508	522	0	509	38	12	
8	0	0	0	0	509	522	0	496	38	12	
9	0	0	0	0	507	523	0	499	38	12	
10	0	0	0	0	505	522	0	555	38	12	
11	0	0	0	0	509	521	0	643	38	12	
12	0	0	0	0	510	519	0	766	38	12	
13	0	0	0	0	500	516	0	884	38	12	
14	0	0	0	0	512	514	0	952	38	12	
15	0	0	0	0	508	510	0	993	38	12	
0	0	0	0	0	509	513	0	1009	38	12	
1	0	0	0	0	510	520	0	989	38	12	
2	0	0	0	0	509	519	0	927	38	12	
3	0	0	0	0	511	517	0	792	38	12	
4	0	0	0	0	513	518	0	655	38	12	
5	0	0	0	0	509	517	0	580	38	12	
6	0	0	0	0	506	517	0	520	38	12	
7	0	0	0	0	505	522	0	513	38	12	
8	0	0	0	0	508	526	0	558	38	12	
9	0	0	0	0	508	526	0	603	38	12	
10	0	0	0	0	509	527	0	630	38	12	
11	0	0	0	0	505	527	0	621	38	12	
12	0	0	0	0	507	524	0	589	38	12	
13	0	0	0	0	513	525	0	547	38	12	
14	0	0	0	0	513	525	0	460	38	12	
15	0	0	0	0	512	524	0	309	38	12	
0	0	0	0	0	511	527	0	202	38	12	
1	0	0	0	0	514	530	0	103	38	12	
2	0	0	0	0	506	527	0	0	38	12	
3	0	0	0	0	503	525	0	0	38	12	
4	0	0	0	0	508	526	0	0	38	12	
5	0	0	0	0	510	527	0	0	38	12	
6	0	0	0	0	508	526	0	0	38	12	
7	0	0	0	0	503	524	0	135	38	12	
8	0	0	0	0	499	523	0	290	38	12	
9	0	0	0	0	510	524	0	418	38	12	
10	0	0	0	0	508	528	0	518	38	12	
11	0	0	0	0	511	529	0	607	38	12	
12	0	0	0	0	508	529	0	615	38	12	
13	0	0	0	0	511	528	0	589	38	12	
14	0	0	0	0	503	530	0	612	38	12	
15	0	0	0	0	509	531	0	694	38	12	
0	0	0	0	0	506	529	0	762	38	12	
1	0	0	0	0	509	528	0	821	38	12	
2	0	0	0	0	510	527	0	847	38	12	
3	0	0	0	0	509	527	0	862	38	12	
4	0	0	0	0	510	530	0	768	38	12	
5	0	0	0	0	509	534	0	632	38	12	
6	0	0	0	0	505	534	0	499	38	12	
7	0	0	0	0	507	532	0	422	38	12	
8	0	0	0	0	508	533	0	455	38	12	
9	0	0	0	0	508	532	0	485	38	12	
10	0	0	0	0	508	532	0	413	38	12	
11	0	0	0	0	507	532	0	376	38	12	
12	0	0	0	0	514	531	0	380	38	12	
13	0	0	0	0	513	531	0	369	38	12	
14	0	0	0	0	509	530	0	397	38	12	
15	0	0	0	0	510	532	0	469	38	12	
0	0	0	0	0	507	532	0	552	38	12	
1	0	0	0	0	504	531	0	600	38	12	
2	0	0	0	0	507	531	0	552	38	12	
3	0	0	0	0	511	531	0	489	38	12	
4	0	0	0	0	512	531	0	395	38	12	
5	0	0	0	0	513	536	0	291	38	12	
6	0	0	0	0	508	542	0	161	38	12	
7	0	0	0	0	506	544	0	71	38	12	
8	0	0	0	0	512	536	0	106	38	12	
9	0	0	0	0	508	529	0	230	38	12	
10	0	0	0	0	510	526	0	342	38	12	
11	0	0	0	0	509	524	0	411	38	12	
12	0	0	0	0	508	523	0	451	38	12	
13	0	0	0	0	511	523	0	488	38	12	
14	0	0	0	0	512	526	0	550	38	12	
15	0	0	0	0	500	527	0	596	38	12	
0	0	0	0	0	504	528	0	584	38	12	
1	0	0	0	0	510	527	0	487	38	12	
2	0	0	0	0	513	526	0	396	38	12	
3	0	0	0	0	508	526	0	355	38	12	
4	0	0	0	0	508	526	0	394	38	12	
5	0	0	0	0	507	528	0	505	38	12	
6	0	0	0	0	502	528	0	657	38	12	
7	0	0	0	0	509	528	0	811	38	12	
8	0	0	0	0	512	529	0	921	38	12	
9	0	0	0	0	516	531	0	974	38	12	
10	0	0	0	0	506	532	0	975	38	12	
11	0	0	0	0	508	537	0	948	38	12	
12	0	0	0	0	512	539	0	957	38	12	
13	0	0	0	0	512	532	0	989	38	12	
14	0	0	0	0	507	527	0	1001	38	12	
15	0	0	0	0	507	525	0	1014	38	12	
0	0	0	0	0	512	522	0	1018	38	12	
1	0	0	0	0	503	519	0	1018	38	12	
2	0	0	0	0	505	521	0	983	38	12	
3	0	0	0	0	507	519	0	966	38	12	
4	0	0	0	0	505	507	0	942	38	12	
5	0	0	0	0	517	501	0	885	38	12	
6	0	0	0	0	516	504	0	816	38	12	
7	0	0	0	0	504	507	0	705	38	12	
8	0	0	0	0	507	509	0	618	38	12	
9	0	0	0	0	507	514	0	589	38	12	
10	0	0	0	0	505	517	0	625	38	12	
11	0	0	0	0	508	513	0	643	38	12	
12	0	0	0	0	512	511	0	662	38	12	
13	0	0	0	0	510	511	0	623	38	12	
14	0	0	0	0	510	508	0	516	38	12	
15	0	0	0	0	513	506	0	399	38	12	
0	0	0	0	0	507	502	0	253	38	12	
1	0	0	0	0	509	500	0	51	38	12	
2	0	0	0	0	510	502	0	0	38	12	
3	0	0	0	0	511	503	0	0	38	12	
4	0	0	0	0	512	502	0	0	38	12	
5	0	0	0	0	511	501	0	0	38	12	
6	0	0	0	0	508	502	0	0	38	12	
7	0	0	0	0	498	500	0	0	38	12	
8	0	0	0	0	503	499	0	0	38	12	
9	0	0	0	0	512	501	0	0	38	12	
10	0	0	0	0	512	502	0	205	38	12	
11	0	0	0	0	510	497	0	379	38	12	
12	0	0	0	0	505	496	0	408	38	12	
13	0	0	0	0	512	496	0	372	38	12	
14	0	0	0	0	504	494	0	215	38	12	
15	0	0	0	0	510	488	0	0	38	12	
0	0	0	0	0	516	483	0	0	38	12	
1	0	0	0	0	502	484	0	0	38	12	
2	0	0	0	0	500	487	0	0	38	12	
3	0	0	0	0	506	486	0	0	38	12	
4	0	0	0	0	516	486	0	0	38	12	
5	0	0	0	0	514	484	0	0	38	12	
6	0	0	0	0	512	484	0	0	38	12	
7	0	0	0	0	509	483	0	228	38	12	
8	0	0	0	0	507	483	0	385	38	12	
9	0	0	0	0	513	483	0	560	38	12	
10	0	0	0	0	509	483	0	648	38	12	
11	0	0	0	0	508	487	0	723	38	12	
12	0	0	0	0	509	491	0	740	38	12	
13	0	0	0	0	514	495	0	726	38	12	
14	0	0	0	0	508	497	0	721	38	12	
15	0	0	0	0	507	496	0	659	38	12	
0	0	0	0	0	508	493	0	661	38	12	
1	0	0	0	0	503	489	0	727	38	12	
2	0	0	0	0	507	487	0	730	38	12	
3	0	0	0	0	509	480	0	679	38	12	
4	0	0	0	0	509	476	0	584	38	12	
5	0	0	0	0	513	478	0	490	38	12	
6	0	0	0	0	507	480	0	401	38	12	
7	0	0	0	0	502	483	0	290	38	12	
8	0	0	0	0	509	485	0	169	38	12	
9	0	0	0	0	502	488	0	58	38	12	
10	0	0	0	0	506	488	0	0	38	12	
11	0	0	0	0	508	484	0	0	38	12	
12	0	0	0	0	505	486	0	0	38	12	
13	0	0	0	0	512	490	0	0	38	12	
14	0	0	0	0	510	496	0	0	38	12	
15	0	0	0	0	505	499	0	0	38	12	
0	0	0	0	0	512	490	0	0	38	12	
1	0	0	0	0	505	483	0	0	38	12	
2	0	0	0	0	515	483	0	123	38	12	
3	0	0	0	0	506	483	0	201	38	12	
4	0	0	0	0	503	484	0	218	38	12	
5	0	0	0	0	512	487	0	172	38	12	
6	0	0	0	0	505	488	0	91	38	12	
7	0	0	0	0	512	487	0	0	38	12	
8	0	0	0	0	510	484	0	0	38	12	
9	0	0	0	0	508	486	0	0	38	12	
10	0	0	0	0	509	491	0	0	38	12	
11	0	0	0	0	503	491	0	0	38	12	
12	0	0	0	0	506	490	0	0	38	12	
13	0	0	0	0	509	493	0	147	38	12	
14	0	0	0	0	502	492	0	371	38	12	
15	0	0	0	0	513	488	0	568	38	12	
0	0	0	0	0	508	487	0	655	38	12	
1	0	0	0	0	505	485	0	687	38	12	
2	0	0	0	0	508	483	0	708	38	12	
3	0	0	0	0	514	486	0	731	38	12	
4	0	0	0	0	510	487	0	743	38	12	
5	0	0	0	0	514	491	0	760	38	12	
6	0	0	0	0	505	493	0	747	38	12	
7	0	0	0	0	516	489	0	643	38	12	
8	0	0	0	0	507	489	0	508	38	12	
9	0	0	0	0	511	491	0	431	38	12	
10	0	0	0	0	508	493	0	416	38	12	
11	0	0	0	0	504	494	0	464	38	12	
12	0	0	0	0	516	495	0	561	38	12	
13	0	0	0	0	507	495	0	656	38	12	
14	0	0	0	0	509	492	0	734	38	12	
15	0	0	0	0	506	492	0	819	38	12	
0	0	0	0	0	511	493	0	862	38	12	
1	0	0	0	0	514	493	0	837	38	12	
2	0	0	0	0	505	492	0	781	38	12	
3	0	0	0	0	499	492	0	711	38	12	
4	0	0	0	0	504	490	0	657	38	12	
5	0	0	0	0	509	487	0	659	38	12	
6	0	0	0	0	506	492	0	712	38	12	
7	0	0	0	0	514	495	0	820	38	12	
8	0	0	0	0	508	495	0	946	38	12	
9	0	0	0	0	510	494	0	1017	38	12	
10	0	0	0	0	513	492	0	1018	38	12	
11	0	0	0	0	504	492	0	1018	38	12	
12	0	0	0	0	507	492	0	1018	38	12	
13	0	0	0	0	509	492	0	942	38	12	
14	0	0	0	0	515	491	0	845	38	12	
15	0	0	0	0	510	490	0	827	38	12	
0	0	0	0	0	508	490	0	865	38	12	
1	0	0	0	0	512	492	0	925	38	12	
2	0	0	0	0	507	492	0	991	38	12	
3	0	0	0	0	507	492	0	1012	38	12	
4	0	0	0	0	511	494	0	1018	38	12	
5	0	0	0	0	512	494	0	1018	38	12	
6	0	0	0	0	510	491	0	1018	38	12	
7	0	0	0	0	508	491	0	1018	38	12	
8	0	0	0	0	504	493	0	1018	38	12	
9	0	0	0	0	510	497	0	1018	38	12	
10	0	0	0	0	507	502	0	966	38	12	
11	0	0	0	0	511	502	0	931	38	12	
12	0	0	0	0	505	496	0	863	38	12	
13	0	0	0	0	511	492	0	783	38	12	
14	0	0	0	0	505	491	0	782	38	12	
15	0	0	0	0	508	498	0	815	38	12	
0	0	0	0	0	506	507	0	804	38	12	
1	0	0	0	0	510	508	0	746	38	12	
2	0	0	0	0	509	509	0	653	38	12	
3	0	0	0	0	515	503	0	561	38	12	
4	0	0	0	0	509	502	0	555	38	12	
5	0	0	0	0	506	502	0	587	38	12	
6	0	0	0	0	505	496	0	624	38	12	
7	0	0	0	0	505	495	0	639	38	12	
8	0	0	0	0	509	493	0	668	38	12	
9	0	0	0	0	512	494	0	751	38	12	
10	0	0	0	0	507	497	0	819	38	12	
11	0	0	0	0	510	501	0	781	38	12	
12	0	0	0	0	506	504	0	676	38	12	
13	0	0	0	0	498	503	0	569	38	12	
14	0	0	0	0	514	501	0	457	38	12	
15	0	0	0	0	505	503	0	332	38	12	
0	0	0	0	0	507	502	0	247	38	12	
1	0	0	0	0	511	500	0	141	38	12	
2	0	0	0	0	509	499	0	15	38	12	
3	0	0	0	0	504	497	0	0	37	12	
4	0	0	0	0	504	495	0	0	38	12	
5	0	0	0	0	505	493	0	0	38	12	
6	0	0	0	0	513	495	0	0	38	12	
7	0	0	0	0	511	498	0	0	38	12	
8	0	0	0	0	516	498	0	0	38	12	
9	0	0	0	0	507	497	0	148	38	12	
10	0	0	0	0	506	498	0	184	38	12	
11	0	0	0	0	513	498	0	179	38	12	
12	0	0	0	0	506	500	0	229	38	12	
13	0	0	0	0	508	500	0	316	38	12	
14	0	0	0	0	503	499	0	431	38	12	
15	0	0	0	0	510	500	0	579	38	12	
0	0	0	0	0	503	499	0	676	38	12	
1	0	0	0	0	508	498	0	675	38	12	
2	0	0	0	0	514	502	0	661	38	12	
3	0	0	0	0	516	503	0	678	38	12	
4	0	0	0	0	509	502	0	711	38	12	
5	0	0	0	0	509	499	0	738	38	12	
6	0	0	0	0	504	499	0	747	38	12	
7	0	0	0	0	514	500	0	775	38	12	
8	0	0	0	0	507	501	0	782	38	12	
9	0	0	0	0	512	503	0	777	38	12	
10	0	0	0	0	503	502	0	799	38	12	
11	0	0	0	0	509	499	0	811	38	12	
12	0	0	0	0	511	501	0	862	38	12	
13	0	0	0	0	507	506	0	870	38	12	
14	0	0	0	0	510	505	0	847	38	12	
15	0	0	0	0	512	505	0	741	38	12	
0	0	0	0	0	513	506	0	609	38	12	
1	0	0	0	0	506	504	0	464	38	12	
2	0	0	0	0	512	507	0	352	38	12	
3	0	0	0	0	508	510	0	311	38	12	
4	0	0	0	0	508	510	0	301	38	12	
5	0	0	0	0	509	512	0	336	38	12	
6	0	0	0	0	508	512	0	379	38	12	
7	0	0	0	0	509	510	0	460	38	12	
8	0	0	0	0	511	510	0	558	38	12	
9	0	0	0	0	507	510	0	606	38	12	
10	0	0	0	0	510	509	0	678	38	12	
11	0	0	0	0	496	508	0	757	38	12	
12	0	0	0	0	508	507	0	821	38	12	
13	0	0	0	0	513	506	0	799	38	12	
14	0	0	0	0	512	510	0	738	38	12	
15	0	0	0	0	510	513	0	673	38	12	
0	0	0	0	0	504	511	0	537	38	12	
1	0	0	0	0	510	514	0	408	38	12	
2	0	0	0	0	509	515	0	266	38	12	
3	0	0	0	0	512	512	0	73	37	12	
4	0	0	0	0	513	507	0	0	38	12	
5	0	0	0	0	503	505	0	0	38	12	
6	0	0	0	0	504	508	0	0	38	12	
7	0	0	0	0	512	509	0	0	38	12	
8	0	0	0	0	507	509	0	0	38	12	
9	0	0	0	0	513	507	0	0	38	12	
10	0	0	0	0	510	510	0	0	38	12	
11	0	0	0	0	513	513	0	0	37	12	
12	0	0	0	0	506	515	0	0	38	12	
13	0	0	0	0	507	517	0	0	38	12	
14	0	0	0	0	507	513	0	0	38	12	
15	0	0	0	0	513	511	0	0	38	12	
0	0	0	0	0	510	510	0	154	38	12	
1	0	0	0	0	506	512	0	324	38	12	
2	0	0	0	0	516	512	0	466	38	12	
3	0	0	0	0	511	511	0	578	38	12	
4	0	0	0	0	512	512	0	643	38	12	
5	0	0	0	0	505	514	0	694	38	12	
6	0	0	0	0	509	515	0	740	38	12	
7	0	0	0	0	504	518	0	755	38	12	
8	0	0	0	0	511	522	0	799	38	12	
9	0	0	0	0	505	526	0	819	38	12	
10	0	0	0	0	511	522	0	812	38	12	
11	0	0	0	0	504	517	0	753	38	12	
12	0	0	0	0	508	520	0	682	38	12	
13	0	0	0	0	508	520	0	642	38	12	
14	0	0	0	0	511	518	0	579	38	12	
15	0	0	0	0	506	516	0	593	38	12	
0	0	0	0	0	510	515	0	598	38	12	
1	0	0	0	0	506	514	0	596	38	12	
2	0	0	0	0	514	515	0	654	38	12	
3	0	0	0	0	513	513	0	732	38	12	
4	0	0	0	0	506	514	0	797	38	12	
5	0	0	0	0	505	515	0	816	38	12	
6	0	0	0	0	500	514	0	790	38	12	
7	0	0	0	0	505	513	0	740	38	12	
8	0	0	0	0	510	512	0	683	38	12	
9	0	0	0	0	513	512	0	646	38	12	
10	0	0	0	0	514	514	0	613	38	12	
11	0	0	0	0	506	517	0	630	38	12	
12	0	0	0	0	512	519	0	599	38	12	
13	0	0	0	0	515	518	0	497	38	12	
14	0	0	0	0	502	518	0	410	38	12	
15	0	0	0	0	504	519	0	402	38	12	
0	0	0	0	0	511	522	0	432	38	12	
1	0	0	0	0	508	523	0	491	38	12	
2	0	0	0	0	513	522	0	507	38	12	
3	0	0	0	0	507	517	0	526	38	12	
4	0	0	0	0	508	514	0	544	38	12	
5	0	0	0	0	507	513	0	556	38	12	
6	0	0	0	0	518	513	0	600	38	12	
7	0	0	0	0	508	513	0	666	38	12	
8	0	0	0	0	510	513	0	712	38	12	
9	0	0	0	0	507	514	0	701	38	12	
10	0	0	0	0	509	513	0	611	38	12	
11	0	0	0	0	508	509	0	431	38	12	
12	0	0	0	0	509	509	0	210	38	12	
13	0	0	0	0	506	510	0	24	38	12	
14	0	0	0	0	509	509	0	0	38	12	
15	0	0	0	0	509	508	0	0	38	12	
0	0	0	0	0	505	508	0	0	38	12	
1	0	0	0	0	510	508	0	0	38	12	
2	0	0	0	0	516	507	0	0	38	12	
3	0	0	0	0	515	508	0	0	38	12	
4	0	0	0	0	504	509	0	118	38	12	
5	0	0	0	0	506	507	0	246	38	12	
6	0	0	0	0	508	507	0	439	38	12	
7	0	0	0	0	505	505	0	588	38	12	
8	0	0	0	0	507	502	0	734	38	12	
9	0	0	0	0	510	501	0	880	38	12	
10	0	0	0	0	509	503	0	992	38	12	
11	0	0	0	0	509	503	0	1018	38	12	
12	0	0	0	0	510	506	0	1018	38	12	
13	0	0	0	0	509	509	0	1018	38	12	
14	0	0	0	0	507	506	0	1018	38	12	
15	0	0	0	0	509	503	0	1018	38	12	
0	0	0	0	0	503	500	0	1018	38	12	
1	0	0	0	0	509	498	0	1018	38	12	
2	0	0	0	0	514	498	0	1018	38	12	
3	0	0	0	0	513	499	0	1018	38	12	
4	0	0	0	0	504	501	0	1017	38	12	
5	0	0	0	0	504	502	0	955	38	12	
6	0	0	0	0	510	503	0	883	38	12	
7	0	0	0	0	512	501	0	852	38	12	
8	0	0	0	0	514	498	0	768	38	12	
9	0	0	0	0	507	498	0	748	38	12	
10	0	0	0	0	513	501	0	676	38	12	
11	0	0	0	0	496	501	0	565	38	12	
12	0	0	0	0	512	498	0	464	38	12	
13	0	0	0	0	510	499	0	408	38	12	
14	0	0	0	0	508	500	0	410	38	12	
15	0	0	0	0	512	499	0	467	38	12	
0	0	0	0	0	511	500	0	542	38	12	
1	0	0	0	0	504	499	0	619	38	12	
2	0	0	0	0	508	500	0	700	38	12	
3	0	0	0	0	512	500	0	720	38	12	
4	0	0	0	0	504	502	0	722	38	12	
5	0	0	0	0	513	503	0	724	38	12	
6	0	0	0	0	507	503	0	714	38	12	
7	0	0	0	0	507	503	0	691	38	12	
8	0	0	0	0	511	500	0	696	38	12	
9	0	0	0	0	509	501	0	735	38	12	
10	0	0	0	0	506	503	0	722	38	12	
11	0	0	0	0	511	503	0	684	38	12	
12	0	0	0	0	512	504	0	626	38	12	
13	0	0	0	0	511	503	0	635	38	12	
14	0	0	0	0	510	500	0	687	38	12	
15	0	0	0	0	515	499	0	806	38	12	
0	0	0	0	0	503	500	0	949	38	12	
1	0	0	0	0	501	501	0	1008	38	12	
2	0	0	0	0	505	501	0	953	38	12	
3	0	0	0	0	508	500	0	846	38	12	
4	0	0	0	0	508	499	0	707	38	12	
5	0	0	0	0	509	499	0	575	38	12	
6	0	0	0	0	511	499	0	445	38	12	
7	0	0	0	0	506	501	0	345	38	12	
8	0	0	0	0	505	502	0	292	38	12	
9	0	0	0	0	511	503	0	278	38	12	
10	0	0	0	0	515	502	0	307	38	12	
11	0	0	0	0	508	504	0	389	38	12	
12	0	0	0	0	515	505	0	531	38	12	
13	0	0	0	0	498	504	0	659	38	12	
14	0	0	0	0	508	500	0	772	38	12	
15	0	0	0	0	514	494	0	806	38	12	
0	0	0	0	0	510	494	0	831	38	12	
1	0	0	0	0	510	495	0	864	38	12	
2	0	0	0	0	514	492	0	906	38	12	
3	0	0	0	0	507	489	0	945	38	12	
4	0	0	0	0	509	488	0	998	38	12	
5	0	0	0	0	509	489	0	1018	38	12	
6	0	0	0	0	512	489	0	1018	38	12	
7	0	0	0	0	502	490	0	1018	38	12	
8	0	0	0	0	507	491	0	1018	38	12	
9	0	0	0	0	507	494	0	1018	38	12	
10	0	0	0	0	512	497	0	1018	38	12	
11	0	0	0	0	510	499	0	1018	38	12	
12	0	0	0	0	511	503	0	1017	38	12	
13	0	0	0	0	513	508	0	939	38	12	
14	0	0	0	0	508	512	0	841	38	12	
15	0	0	0	0	505	519	0	733	38	12	
0	0	0	0	0	510	525	0	615	38	12	
1	0	0	0	0	508	527	0	522	38	12	
2	0	0	0	0	509	531	0	516	38	12	
3	0	0	0	0	504	541	0	546	38	12	
4	0	0	0	0	507	547	0	527	38	12	
5	0	0	0	0	504	551	0	506	38	12	
6	0	0	0	0	513	556	0	514	38	12	
7	0	0	0	0	509	560	0	505	38	12	
8	0	0	0	0	507	560	0	473	38	12	
9	0	0	0	0	509	561	0	432	38	12	
10	0	0	0	0	504	562	0	337	38	12	
11	0	0	0	0	510	563	0	309	38	12	
12	0	0	0	0	513	566	0	384	38	12	
13	0	0	0	0	513	570	0	518	38	12	
14	0	0	0	0	512	570	0	543	38	12	
15	0	0	0	0	509	570	0	512	38	12	
0	0	0	0	0	507	571	0	419	38	12	
1	0	0	0	0	510	571	0	214	38	12	
2	0	0	0	0	512	566	0	17	38	12	
3	0	0	0	0	510	560	0	0	38	12	
4	0	0	0	0	505	553	0	0	38	12	
5	0	0	0	0	510	547	0	0	38	12	
6	0	0	0	0	504	535	0	0	38	12	
7	0	0	0	0	512	520	0	0	38	12	
8	0	0	0	0	508	511	0	0	38	12	
9	0	0	0	0	511	502	0	0	38	12	
10	0	0	0	0	502	494	0	0	38	12	
11	0	0	0	0	506	486	0	0	38	12	
12	0	0	0	0	507	478	0	0	38	12	
13	0	0	0	0	508	472	0	0	38	12	
14	0	0	0	0	512	467	0	0	38	12	
15	0	0	0	0	518	465	0	0	38	12	
0	0	0	0	0	502	463	0	0	38	12	
1	0	0	0	0	511	461	0	0	38	12	
2	0	0	0	0	511	461	0	125	38	12	
3	0	0	0	0	512	458	0	280	38	12	
4	0	0	0	0	510	459	0	384	38	12	
5	0	0	0	0	510	461	0	439	38	12	
6	0	0	0	0	509	465	0	463	38	12	
7	0	0	0	0	502	466	0	449	38	12	
8	0	0	0	0	508	466	0	408	38	12	
9	0	0	0	0	508	466	0	424	38	12	
10	0	0	0	0	513	468	0	492	38	12	
11	0	0	0	0	506	468	0	566	38	12	
12	0	0	0	0	519	470	0	658	38	12	
13	0	0	0	0	509	471	0	702	38	12	
14	0	0	0	0	506	473	0	702	38	12	
15	0	0	0	0	507	477	0	660	38	12	
0	0	0	0	0	506	482	0	629	38	12	
1	0	0	0	0	514	485	0	599	38	12	
2	0	0	0	0	510	484	0	539	38	12	
3	0	0	0	0	505	485	0	462	38	12	
4	0	0	0	0	512	488	0	384	38	12	
5	0	0	0	0	503	489	0	351	38	12	
6	0	0	0	0	502	490	0	295	38	12	
7	0	0	0	0	507	493	0	268	38	12	
8	0	0	0	0	509	494	0	275	38	12	
9	0	0	0	0	503	496	0	210	38	12	
10	0	0	0	0	510	498	0	63	38	12	
11	0	0	0	0	506	499	0	0	38	12	
12	0	0	0	0	512	498	0	0	38	12	
13	0	0	0	0	513	498	0	0	38	12	
14	0	0	0	0	507	498	0	0	38	12	
15	0	0	0	0	505	499	0	0	38	12	
0	0	0	0	0	508	499	0	0	38	12	
1	0	0	0	0	509	500	0	0	38	12	
2	0	0	0	0	510	500	0	0	38	12	
3	0	0	0	0	513	503	0	117	38	12	
4	0	0	0	0	505	506	0	268	38	12	
5	0	0	0	0	510	507	0	367	38	12	
6	0	0	0	0	514	507	0	446	38	12	
7	0	0	0	0	511	505	0	498	38	12	
8	0	0	0	0	510	504	0	463	38	12	
9	0	0	0	0	513	508	0	419	38	12	
10	0	0	0	0	509	515	0	405	38	12	
11	0	0	0	0	515	515	0	443	38	12	
12	0	0	0	0	503	512	0	550	38	12	
13	0	0	0	0	507	511	0	685	38	12	
14	0	0	0	0	509	509	0	867	38	12	
15	0	0	0	0	508	509	0	1008	38	12	
0	0	0	0	0	510	509	0	1018	38	12	
1	0	0	0	0	508	509	0	1018	38	12	
2	0	0	0	0	502	510	0	1017	38	12	
3	0	0	0	0	510	509	0	829	38	12	
4	0	0	0	0	503	509	0	711	38	12	
5	0	0	0	0	511	510	0	683	38	12	
6	0	0	0	0	512	511	0	727	38	12	
7	0	0	0	0	509	509	0	789	38	12	
8	0	0	0	0	511	508	0	879	38	12	
9	0	0	0	0	508	511	0	975	38	12	
10	0	0	0	0	504	515	0	1018	38	12	
11	0	0	0	0	514	515	0	1018	38	12	
12	0	0	0	0	508	516	0	1018	38	12	
13	0	0	0	0	505	516	0	1018	38	12	
14	0	0	0	0	512	515	0	1018	38	12	
15	0	0	0	0	507	514	0	960	38	12	
0	0	0	0	0	509	514	0	934	38	12	
1	0	0	0	0	511	514	0	972	38	12	
2	0	0	0	0	511	515	0	1018	38	12	
3	0	0	0	0	513	515	0	1018	38	12	
4	0	0	0	0	506	516	0	1018	38	12	
5	0	0	0	0	502	516	0	1018	38	12	
6	0	0	0	0	510	517	0	1018	38	12	
7	0	0	0	0	510	518	0	1018	38	12	
8	0	0	0	0	508	516	0	1018	38	12	
9	0	0	0	0	508	515	0	1018	38	12	
10	0	0	0	0	509	516	0	1018	38	12	
11	0	0	0	0	510	516	0	1018	38	12	
12	0	0	0	0	513	516	0	1018	38	12	
13	0	0	0	0	506	515	0	1018	38	12	
14	0	0	0	0	502	515	0	1018	38	12	
15	0	0	0	0	512	515	0	1018	38	12	
0	0	0	0	0	509	516	0	1018	38	12	
1	0	0	0	0	511	516	0	1018	38	12	
2	0	0	0	0	508	517	0	1018	38	12	
3	0	0	0	0	508	518	0	1018	38	12	
4	0	0	0	0	511	519	0	1018	38	12	
5	0	0	0	0	510	519	0	1018	38	12	
6	0	0	0	0	510	519	0	1018	38	12	
7	0	0	0	0	511	519	0	1018	38	12	
8	0	0	0	0	505	519	0	1018	38	12	
9	0	0	0	0	508	518	0	1018	38	12	
10	0	0	0	0	508	519	0	1018	38	12	
11	0	0	0	0	511	519	0	1018	38	12	
12	0	0	0	0	511	519	0	1018	38	12	
13	0	0	0	0	511	518	0	1018	38	12	
14	0	0	0	0	509	519	0	1017	38	12	
15	0	0	0	0	509	521	0	917	38	12	
0	0	0	0	0	506	521	0	837	38	12	
1	0	0	0	0	509	522	0	779	38	12	
2	0	0	0	0	499	522	0	750	38	12	
3	0	0	0	0	505	521	0	706	38	12	
4	0	0	0	0	512	521	0	694	38	12	
5	0	0	0	0	508	521	0	677	38	12	
6	0	0	0	0	519	521	0	647	38	12	
7	0	0	0	0	507	522	0	568	38	12	
8	0	0	0	0	511	523	0	486	38	12	
9	0	0	0	0	508	523	0	433	38	12	
10	0	0	0	0	510	524	0	436	38	12	
11	0	0	0	0	508	523	0	423	38	12	
12	0	0	0	0	506	522	0	377	38	12	
13	0	0	0	0	504	523	0	263	38	12	
14	0	0	0	0	509	523	0	132	38	12	
15	0	0	0	0	507	523	0	56	38	12	
0	0	0	0	0	505	523	0	71	38	12	
1	0	0	0	0	515	524	0	81	38	12	
2	0	0	0	0	505	523	0	42	38	12	
3	0	0	0	0	512	523	0	0	38	12	
4	0	0	0	0	505	523	0	0	38	12	
5	0	0	0	0	508	523	0	0	38	12	
6	0	0	0	0	512	524	0	0	38	12	
7	0	0	0	0	505	524	0	0	38	12	
8	0	0	0	0	507	525	0	0	38	12	
9	0	0	0	0	513	525	0	0	38	12	
10	0	0	0	0	510	525	0	0	38	12	
11	0	0	0	0	517	524	0	89	38	12	
12	0	0	0	0	508	524	0	116	38	12	
13	0	0	0	0	511	525	0	165	38	12	
14	0	0	0	0	503	526	0	267	38	12	
15	0	0	0	0	507	525	0	360	38	12	
0	0	0	0	0	505	526	0	481	38	12	
1	0	0	0	0	506	526	0	616	38	12	
2	0	0	0	0	513	526	0	708	38	12	
3	0	0	0	0	510	524	0	810	38	12	
4	0	0	0	0	510	523	0	919	38	12	
5	0	0	0	0	506	524	0	1017	38	12	
6	0	0	0	0	517	524	0	1018	38	12	
7	0	0	0	0	507	524	0	1018	38	12	
8	0	0	0	0	510	525	0	1018	38	12	
9	0	0	0	0	507	526	0	1018	38	12	
10	0	0	0	0	509	527	0	1018	38	12	
11	0	0	0	0	512	527	0	1018	38	12	
12	0	0	0	0	504	527	0	1018	38	12	
13	0	0	0	0	509	527	0	1018	38	12	
14	0	0	0	0	508	527	0	1018	38	12	
15	0	0	0	0	514	527	0	1018	38	12	
0	0	0	0	0	512	527	0	952	38	12	
1	0	0	0	0	499	528	0	863	38	12	
2	0	0	0	0	512	528	0	805	38	12	
3	0	0	0	0	506	527	0	732	38	12	
4	0	0	0	0	511	528	0	596	38	12	
5	0	0	0	0	508	529	0	427	38	12	
6	0	0	0	0	505	529	0	296	38	12	
7	0	0	0	0	507	527	0	250	38	12	
8	0	0	0	0	500	527	0	269	38	12	
9	0	0	0	0	508	529	0	335	38	12	
10	0	0	0	0	504	531	0	442	38	12	
11	0	0	0	0	509	532	0	483	38	12	
12	0	0	0	0	514	532	0	516	38	12	
13	0	0	0	0	509	533	0	554	38	12	
14	0	0	0	0	507	534	0	539	38	12	
15	0	0	0	0	508	534	0	579	38	12	
0	0	0	0	0	515	534	0	598	38	12	
1	0	0	0	0	509	535	0	615	38	12	
2	0	0	0	0	505	535	0	668	38	12	
3	0	0	0	0	517	535	0	722	38	12	
4	0	0	0	0	505	536	0	722	38	12	
5	0	0	0	0	504	535	0	613	38	12	
6	0	0	0	0	515	535	0	505	38	12	
7	0	0	0	0	508	535	0	315	38	12	
8	0	0	0	0	513	534	0	49	38	12	
9	0	0	0	0	505	532	0	0	38	12	
10	0	0	0	0	507	532	0	0	38	12	
11	0	0	0	0	505	533	0	0	38	12	
12	0	0	0	0	511	534	0	0	38	12	
13	0	0	0	0	513	534	0	0	38	12	
14	0	0	0	0	507	535	0	0	38	12	
15	0	0	0	0	507	535	0	0	38	12	
0	0	0	0	0	509	536	0	0	38	12	
1	0	0	0	0	507	536	0	0	38	12	
2	0	0	0	0	510	536	0	0	38	12	
3	0	0	0	0	509	536	0	0	38	12	
4	0	0	0	0	509	536	0	0	38	12	
5	0	0	0	0	504	536	0	167	38	12	
6	0	0	0	0	514	537	0	320	38	12	
7	0	0	0	0	518	536	0	386	38	12	
8	0	0	0	0	509	536	0	392	38	12	
9	0	0	0	0	504	535	0	401	38	12	
10	0	0	0	0	510	536	0	415	38	12	
11	0	0	0	0	516	535	0	463	38	12	
12	0	0	0	0	507	536	0	509	38	12	
13	0	0	0	0	505	536	0	521	38	12	
14	0	0	0	0	505	536	0	484	38	12	
15	0	0	0	0	507	536	0	382	38	12	
0	0	0	0	0	505	535	0	205	38	12	
1	0	0	0	0	509	533	0	0	38	12	
2	0	0	0	0	509	533	0	0	38	12	
3	0	0	0	0	510	533	0	0	38	12	
4	0	0	0	0	509	533	0	0	38	13	
5	0	0	0	0	511	533	0	151	38	13	
6	0	0	0	0	511	532	0	322	38	13	
7	0	0	0	0	508	532	0	492	38	12	
8	0	0	0	0	511	531	0	654	38	12	
9	0	0	0	0	509	531	0	780	38	12	
10	0	0	0	0	508	531	0	883	38	12	
11	0	0	0	0	510	531	0	914	38	12	
12	0	0	0	0	504	531	0	896	38	13	
13	0	0	0	0	504	531	0	837	38	13	
14	0	0	0	0	507	530	0	708	38	13	
15	0	0	0	0	508	530	0	531	38	12	
0	0	0	0	0	507	529	0	332	38	12	
1	0	0	0	0	508	528	0	202	38	12	
2	0	0	0	0	513	527	0	143	38	12	
3	0	0	0	0	508	527	0	153	38	13	
4	0	0	0	0	506	526	0	159	38	13	
5	0	0	0	0	511	526	0	127	38	13	
6	0	0	0	0	508	525	0	56	38	13	
7	0	0	0	0	509	525	0	0	38	13	
8	0	0	0	0	512	524	0	0	38	13	
9	0	0	0	0	516	524	0	0	38	12	
10	0	0	0	0	504	523	0	0	38	12	
11	0	0	0	0	511	521	0	0	38	13	
12	0	0	0	0	501	520	0	0	38	13	
13	0	0	0	0	508	519	0	0	38	13	
14	0	0	0	0	507	518	0	0	38	13	
15	0	0	0	0	509	517	0	0	38	13	
0	0	0	0	0	506	516	0	0	38	13	
1	0	0	0	0	512	515	0	0	38	13	
2	0	0	0	0	512	514	0	0	38	13	
3	0	0	0	0	502	513	0	0	38	13	
4	0	0	0	0	509	512	0	120	38	13	
5	0	0	0	0	507	510	0	234	38	13	
6	0	0	0	0	511	509	0	337	38	13	
7	0	0	0	0	512	509	0	456	38	13	
8	0	0	0	0	504	507	0	533	38	13	
9	0	0	0	0	510	505	0	489	38	13	
10	0	0	0	0	513	504	0	442	38	13	
11	0	0	0	0	505	504	0	364	38	13	
12	0	0	0	0	509	501	0	334	38	13	
13	0	0	0	0	506	499	0	340	38	13	
14	0	0	0	0	505	497	0	341	38	13	
15	0	0	0	0	512	496	0	387	38	13	
0	0	0	0	0	506	496	0	424	38	13	
1	0	0	0	0	515	494	0	457	38	13	
2	0	0	0	0	505	494	0	491	38	13	
3	0	0	0	0	507	493	0	550	38	13	
4	0	0	0	0	505	492	0	607	38	13	
5	0	0	0	0	511	492	0	686	38	13	
6	0	0	0	0	504	491	0	717	38	13	
7	0	0	0	0	513	490	0	737	38	13	
8	0	0	0	0	514	489	0	816	38	13	
9	0	0	0	0	511	488	0	915	38	13	
10	0	0	0	0	510	487	0	1004	38	13	
11	0	0	0	0	502	487	0	1018	38	13	
12	0	0	0	0	505	487	0	1018	38	13	
13	0	0	0	0	512	487	0	1017	38	13	
14	0	0	0	0	511	486	0	955	38	13	
15	0	0	0	0	510	485	0	950	38	13	
0	0	0	0	0	510	483	0	940	38	13	
1	0	0	0	0	507	483	0	934	38	13	
2	0	0	0	0	508	484	0	967	38	13	
3	0	0	0	0	506	484	0	967	38	13	
4	0	0	0	0	500	484	0	901	38	13	
5	0	0	0	0	506	484	0	796	38	13	
6	0	0	0	0	507	484	0	641	38	13	
7	0	0	0	0	513	480	0	563	38	13	
8	0	0	0	0	513	481	0	469	38	13	
9	0	0	0	0	510	484	0	385	38	13	
10	0	0	0	0	508	484	0	271	38	13	
11	0	0	0	0	513	483	0	160	38	13	
12	0	0	0	0	515	483	0	111	38	13	
13	0	0	0	0	514	481	0	92	38	13	
14	0	0	0	0	503	481	0	52	38	13	
15	0	0	0	0	506	481	0	66	38	13	
0	0	0	0	0	511	481	0	102	38	13	
1	0	0	0	0	508	481	0	88	38	13	
2	0	0	0	0	510	481	0	20	38	13	
3	0	0	0	0	508	481	0	0	38	13	
4	0	0	0	0	513	481	0	0	38	13	
5	0	0	0	0	506	480	0	79	38	13	
6	0	0	0	0	505	479	0	159	38	13	
7	0	0	0	0	503	479	0	220	38	13	
8	0	0	0	0	501	480	0	269	38	13	
9	0	0	0	0	512	480	0	370	38	13	
10	0	0	0	0	510	480	0	461	38	13	
11	0	0	0	0	506	480	0	539	38	13	
12	0	0	0	0	505	481	0	635	38	13	
13	0	0	0	0	510	481	0	770	38	13	
14	0	0	0	0	513	482	0	916	38	13	
15	0	0	0	0	512	483	0	1018	38	13	
0	0	0	0	0	504	483	0	1018	38	13	
1	0	0	0	0	512	483	0	1018	38	13	
2	0	0	0	0	512	484	0	1017	38	13	
3	0	0	0	0	511	483	0	1017	38	13	
4	0	0	0	0	508	483	0	936	38	13	
5	0	0	0	0	505	483	0	889	38	13	
6	0	0	0	0	515	483	0	847	38	13	
7	0	0	0	0	504	484	0	841	38	13	
8	0	0	0	0	507	485	0	824	38	13	
9	0	0	0	0	509	486	0	759	38	13	
10	0	0	0	0	510	487	0	679	38	13	
11	0	0	0	0	516	486	0	651	38	13	
12	0	0	0	0	508	486	0	619	38	13	
13	0	0	0	0	509	485	0	642	38	13	
14	0	0	0	0	503	485	0	673	38	13	
15	0	0	0	0	510	484	0	775	38	13	
0	0	0	0	0	508	485	0	910	38	13	
1	0	0	0	0	509	486	0	1004	38	13	
2	0	0	0	0	509	486	0	1018	38	13	
3	0	0	0	0	506	486	0	1018	38	13	
4	0	0	0	0	512	487	0	1018	38	13	
5	0	0	0	0	505	488	0	1018	38	13	
6	0	0	0	0	506	489	0	1018	38	13	
7	0	0	0	0	512	488	0	1018	38	13	
8	0	0	0	0	510	488	0	958	38	13	
9	0	0	0	0	514	488	0	892	38	13	
10	0	0	0	0	516	489	0	861	38	13	
11	0	0	0	0	515	488	0	934	38	13	
12	0	0	0	0	510	487	0	997	38	13	
13	0	0	0	0	508	487	0	956	38	13	
14	0	0	0	0	507	488	0	900	38	13	
15	0	0	0	0	514	487	0	891	38	13	
0	0	0	0	0	510	487	0	918	38	13	
1	0	0	0	0	508	488	0	978	38	13	
2	0	0	0	0	511	489	0	1003	38	13	
3	0	0	0	0	509	490	0	960	38	13	
4	0	0	0	0	509	491	0	945	38	13	
5	0	0	0	0	509	492	0	937	38	13	
6	0	0	0	0	509	491	0	926	38	13	
7	0	0	0	0	503	491	0	882	38	13	
8	0	0	0	0	508	492	0	863	38	13	
9	0	0	0	0	512	492	0	889	38	13	
10	0	0	0	0	505	492	0	856	38	13	
11	0	0	0	0	506	492	0	748	38	13	
12	0	0	0	0	504	492	0	632	38	13	
13	0	0	0	0	507	493	0	529	38	13	
14	0	0	0	0	506	494	0	438	38	13	
15	0	0	0	0	505	494	0	380	38	13	
0	0	0	0	0	513	494	0	360	38	13	
1	0	0	0	0	508	493	0	399	38	13	
2	0	0	0	0	506	493	0	420	38	13	
3	0	0	0	0	516	492	0	449	38	13	
4	0	0	0	0	512	492	0	434	38	13	
5	0	0	0	0	510	492	0	405	38	13	
6	0	0	0	0	514	493	0	368	38	13	
7	0	0	0	0	511	494	0	311	38	13	
8	0	0	0	0	507	495	0	305	38	13	
9	0	0	0	0	510	496	0	310	38	13	
10	0	0	0	0	505	496	0	351	38	13	
11	0	0	0	0	511	496	0	345	38	13	
12	0	0	0	0	510	496	0	264	38	13	
13	0	0	0	0	507	496	0	217	38	13	
14	0	0	0	0	516	496	0	200	38	13	
15	0	0	0	0	505	495	0	209	38	13	
0	0	0	0	0	501	496	0	224	38	13	
1	0	0	0	0	509	497	0	218	38	13	
2	0	0	0	0	511	497	0	185	38	13	
3	0	0	0	0	505	497	0	91	38	13	
4	0	0	0	0	508	497	0	18	38	13	
5	0	0	0	0	513	497	0	39	38	13	
6	0	0	0	0	504	496	0	97	38	13	
7	0	0	0	0	510	496	0	161	38	13	
8	0	0	0	0	509	497	0	237	38	13	
9	0	0	0	0	505	498	0	276	38	13	
10	0	0	0	0	507	499	0	319	38	13	
11	0	0	0	0	511	500	0	319	38	13	
12	0	0	0	0	504	499	0	286	38	13	
13	0	0	0	0	514	498	0	252	38	13	
14	0	0	0	0	512	498	0	258	38	13	
15	0	0	0	0	512	497	0	280	38	13	
0	0	0	0	0	505	496	0	336	38	13	
1	0	0	0	0	504	495	0	412	38	13	
2	0	0	0	0	515	496	0	423	38	13	
3	0	0	0	0	512	497	0	424	38	13	
4	0	0	0	0	511	497	0	433	38	13	
5	0	0	0	0	508	498	0	454	38	13	
6	0	0	0	0	504	498	0	489	38	13	
7	0	0	0	0	506	499	0	451	38	13	
8	0	0	0	0	504	499	0	379	38	13	
9	0	0	0	0	503	499	0	328	38	13	
10	0	0	0	0	511	499	0	321	38	13	
11	0	0	0	0	512	499	0	313	38	13	
12	0	0	0	0	508	499	0	241	38	13	
13	0	0	0	0	510	499	0	199	38	13	
14	0	0	0	0	509	499	0	134	38	13	
15	0	0	0	0	511	499	0	85	38	13	
0	0	0	0	0	515	499	0	41	38	13	
1	0	0	0	0	508	499	0	62	38	13	
2	0	0	0	0	509	495	0	85	38	13	
3	0	0	0	0	509	494	0	92	38	13	
4	0	0	0	0	512	497	0	64	38	13	
5	0	0	0	0	504	499	0	27	38	13	
6	0	0	0	0	513	499	0	14	38	13	
7	0	0	0	0	510	499	0	58	38	13	
8	0	0	0	0	504	501	0	110	38	13	
9	0	0	0	0	507	502	0	152	38	13	
10	0	0	0	0	510	503	0	179	38	13	
11	0	0	0	0	511	504	0	212	38	13	
12	0	0	0	0	511	504	0	329	38	13	
13	0	0	0	0	509	505	0	478	38	13	
14	0	0	0	0	512	505	0	570	38	13	
15	0	0	0	0	504	505	0	621	38	13	
0	0	0	0	0	508	505	0	712	38	13	
1	0	0	0	0	508	505	0	789	38	13	
2	0	0	0	0	509	506	0	783	38	13	
3	0	0	0	0	503	505	0	751	38	13	
4	0	0	0	0	503	505	0	756	38	13	
5	0	0	0	0	506	506	0	798	38	13	
6	0	0	0	0	516	507	0	795	38	13	
7	0	0	0	0	505	508	0	707	38	13	
8	0	0	0	0	512	508	0	576	38	13	
9	0	0	0	0	510	508	0	478	38	13	
10	0	0	0	0	510	509	0	405	38	13	
11	0	0	0	0	500	508	0	359	38	13	
12	0	0	0	0	511	508	0	346	38	13	
13	0	0	0	0	512	509	0	393	38	13	
14	0	0	0	0	507	510	0	488	38	13	
15	0	0	0	0	511	511	0	636	38	13	
0	0	0	0	0	510	510	0	790	38	13	
1	0	0	0	0	507	510	0	785	38	13	
2	0	0	0	0	515	511	0	660	38	13	
3	0	0	0	0	512	511	0	444	38	13	
4	0	0	0	0	501	511	0	143	38	13	
5	0	0	0	0	504	511	0	0	38	13	
6	0	0	0	0	503	511	0	0	38	13	
7	0	0	0	0	518	512	0	0	38	13	
8	0	0	0	0	505	512	0	0	38	13	
9	0	0	0	0	512	513	0	0	38	13	
10	0	0	0	0	507	513	0	0	38	13	
11	0	0	0	0	507	513	0	0	38	13	
12	0	0	0	0	508	515	0	0	38	13	
13	0	0	0	0	504	516	0	0	38	13	
14	0	0	0	0	505	516	0	138	38	13	
15	0	0	0	0	509	516	0	363	38	13	
0	0	0	0	0	504	516	0	590	38	13	
1	0	0	0	0	513	516	0	798	38	13	
2	0	0	0	0	508	516	0	928	38	13	
3	0	0	0	0	508	515	0	1017	38	13	
4	0	0	0	0	501	514	0	1018	38	13	
5	0	0	0	0	500	513	0	1018	38	13	
6	0	0	0	0	514	513	0	1018	38	14	
7	0	0	0	0	509	513	0	1018	38	13	
8	0	0	0	0	507	513	0	1017	38	13	
9	0	0	0	0	505	513	0	921	38	13	
10	0	0	0	0	508	513	0	922	38	13	
11	0	0	0	0	510	513	0	910	38	13	
12	0	0	0	0	514	513	0	901	38	13	
13	0	0	0	0	515	514	0	884	38	13	
14	0	0	0	0	508	514	0	869	38	13	
15	0	0	0	0	510	515	0	864	38	14	
0	0	0	0	0	507	516	0	876	38	13	
1	0	0	0	0	508	516	0	929	38	13	
2	0	0	0	0	515	515	0	998	38	13	
3	0	0	0	0	510	515	0	1018	38	13	
4	0	0	0	0	515	514	0	1018	38	13	
5	0	0	0	0	504	515	0	1018	38	13	
6	0	0	0	0	509	515	0	1018	38	14	
7	0	0	0	0	514	514	0	1018	38	14	
8	0	0	0	0	505	513	0	1018	38	14	
9	0	0	0	0	510	512	0	1018	38	13	
10	0	0	0	0	505	512	0	1018	38	13	
11	0	0	0	0	508	511	0	1018	37	13	
12	0	0	0	0	508	511	0	1018	38	13	
13	0	0	0	0	509	512	0	1017	38	13	
14	0	0	0	0	510	512	0	1017	38	14	
15	0	0	0	0	506	511	0	893	38	14	
0	0	0	0	0	511	511	0	886	38	14	
1	0	0	0	0	507	511	0	923	38	14	
2	0	0	0	0	506	510	0	971	38	13	
3	0	0	0	0	508	508	0	927	38	13	
4	0	0	0	0	504	507	0	875	38	13	
5	0	0	0	0	507	505	0	807	38	13	
6	0	0	0	0	508	504	0	766	38	14	
7	0	0	0	0	512	503	0	807	38	14	
8	0	0	0	0	509	502	0	847	38	14	
9	0	0	0	0	515	502	0	850	38	14	
10	0	0	0	0	503	502	0	920	38	13	
11	0	0	0	0	510	501	0	1002	38	13	
12	0	0	0	0	508	500	0	1018	38	13	
13	0	0	0	0	511	500	0	1018	38	13	
14	0	0	0	0	508	500	0	1018	38	14	
15	0	0	0	0	505	500	0	1018	38	14	
0	0	0	0	0	507	500	0	1018	38	14	
1	0	0	0	0	508	499	0	1018	38	14	
2	0	0	0	0	507	500	0	1018	38	14	
3	0	0	0	0	513	500	0	1018	38	14	
4	0	0	0	0	509	499	0	915	38	13	
5	0	0	0	0	513	498	0	797	38	13	
6	0	0	0	0	504	497	0	720	38	14	
7	0	0	0	0	507	497	0	675	38	14	
8	0	0	0	0	509	496	0	636	38	14	
9	0	0	0	0	511	496	0	507	38	14	
10	0	0	0	0	507	496	0	381	38	14	
11	0	0	0	0	509	496	0	237	38	14	
12	0	0	0	0	504	496	0	52	38	13	
13	0	0	0	0	505	496	0	0	38	13	
14	0	0	0	0	514	496	0	0	38	14	
15	0	0	0	0	504	496	0	0	38	14	
0	0	0	0	0	503	496	0	0	38	14	
1	0	0	0	0	508	496	0	0	38	14	
2	0	0	0	0	510	497	0	0	38	14	
3	0	0	0	0	517	496	0	107	38	14	
4	0	0	0	0	507	496	0	200	38	14	
5	0	0	0	0	506	496	0	295	38	13	
6	0	0	0	0	508	495	0	355	38	14	
7	0	0	0	0	505	495	0	363	38	14	
8	0	0	0	0	508	495	0	356	38	14	
9	0	0	0	0	512	496	0	384	38	14	
10	0	0	0	0	509	495	0	395	38	14	
11	0	0	0	0	509	494	0	430	38	14	
12	0	0	0	0	508	494	0	457	38	14	
13	0	0	0	0	511	495	0	432	38	13	
14	0	0	0	0	512	496	0	388	38	13	
15	0	0	0	0	506	496	0	379	38	14	
0	0	0	0	0	512	497	0	418	38	14	
1	0	0	0	0	516	497	0	480	38	14	
2	0	0	0	0	502	497	0	588	38	14	
3	0	0	0	0	504	497	0	695	38	14	
4	0	0	0	0	512	496	0	777	38	14	
5	0	0	0	0	504	495	0	854	38	13	
6	0	0	0	0	499	495	0	855	38	13	
7	0	0	0	0	513	495	0	813	38	14	
8	0	0	0	0	509	495	0	748	38	14	
9	0	0	0	0	512	495	0	725	38	14	
10	0	0	0	0	512	495	0	701	38	14	
11	0	0	0	0	508	496	0	729	38	14	
12	0	0	0	0	507	496	0	791	38	14	
13	0	0	0	0	505	496	0	891	38	14	
14	0	0	0	0	509	495	0	921	38	13	
15	0	0	0	0	511	493	0	916	38	14	
0	0	0	0	0	514	492	0	865	38	14	
1	0	0	0	0	509	489	0	718	38	14	
2	0	0	0	0	506	487	0	574	38	14	
3	0	0	0	0	509	484	0	475	38	14	
4	0	0	0	0	499	482	0	347	38	14	
5	0	0	0	0	510	480	0	200	38	14	
6	0	0	0	0	509	480	0	0	38	13	
7	0	0	0	0	508	479	0	0	38	14	
8	0	0	0	0	509	479	0	0	38	14	
9	0	0	0	0	512	481	0	0	38	14	
10	0	0	0	0	504	484	0	0	38	14	
11	0	0	0	0	510	487	0	0	38	14	
12	0	0	0	0	510	491	0	28	38	14	
13	0	0	0	0	504	495	0	20	38	14	
14	0	0	0	0	506	499	0	0	38	14	
15	0	0	0	0	511	504	0	0	38	14	
0	0	0	0	0	511	509	0	0	38	14	
1	0	0	0	0	511	515	0	0	38	14	
2	0	0	0	0	512	519	0	0	38	14	
3	0	0	0	0	509	525	0	118	38	14	
4	0	0	0	0	508	531	0	193	38	14	
5	0	0	0	0	506	537	0	286	38	14	
6	0	0	0	0	509	542	0	359	38	14	
7	0	0	0	0	502	545	0	419	38	13	
8	0	0	0	0	501	549	0	470	38	14	
9	0	0	0	0	505	551	0	526	38	14	
10	0	0	0	0	512	555	0	632	38	14	
11	0	0	0	0	511	557	0	722	38	14	
12	0	0	0	0	510	558	0	780	38	14	
13	0	0	0	0	514	559	0	828	38	14	
14	0	0	0	0	509	560	0	899	38	14	
15	0	0	0	0	505	562	0	908	38	14	
0	0	0	0	0	510	564	0	938	38	14	
1	0	0	0	0	507	565	0	951	38	14	
2	0	0	0	0	508	565	0	978	38	14	
3	0	0	0	0	505	564	0	1018	38	14	
4	0	0	0	0	507	560	0	1018	38	14	
5	0	0	0	0	511	552	0	1018	38	14	
6	0	0	0	0	508	542	0	1018	38	14	
7	0	0	0	0	513	531	0	1017	38	14	
8	0	0	0	0	508	520	0	810	38	14	
9	0	0	0	0	510	508	0	639	38	14	
10	0	0	0	0	510	497	0	464	38	14	
11	0	0	0	0	509	487	0	306	38	14	
12	0	0	0	0	510	479	0	113	38	14	
13	0	0	0	0	504	473	0	0	38	14	
14	0	0	0	0	507	469	0	0	38	14	
15	0	0	0	0	507	465	0	0	38	14	
0	0	0	0	0	510	463	0	135	38	14	
1	0	0	0	0	504	462	0	255	38	14	
2	0	0	0	0	517	462	0	297	38	14	
3	0	0	0	0	504	460	0	374	38	14	
4	0	0	0	0	503	460	0	471	38	14	
5	0	0	0	0	508	460	0	564	38	14	
6	0	0	0	0	504	460	0	655	38	14	
7	0	0	0	0	506	459	0	667	38	14	
8	0	0	0	0	509	460	0	576	38	14	
9	0	0	0	0	516	460	0	447	38	14	
10	0	0	0	0	512	460	0	386	38	14	
11	0	0	0	0	510	462	0	370	38	14	
12	0	0	0	0	507	464	0	376	38	14	
13	0	0	0	0	511	466	0	403	38	14	
14	0	0	0	0	503	468	0	429	38	14	
15	0	0	0	0	506	470	0	448	38	14	
0	0	0	0	0	511	472	0	462	38	14	
1	0	0	0	0	520	475	0	475	38	14	
2	0	0	0	0	507	478	0	513	38	14	
3	0	0	0	0	507	481	0	543	38	14	
4	0	0	0	0	509	483	0	547	38	14	
5	0	0	0	0	512	483	0	541	38	14	
6	0	0	0	0	507	485	0	539	38	14	
7	0	0	0	0	512	486	0	540	38	14	
8	0	0	0	0	507	487	0	551	38	14	
9	0	0	0	0	507	487	0	622	38	14	
10	0	0	0	0	510	488	0	686	38	14	
11	0	0	0	0	508	491	0	714	38	14	
12	0	0	0	0	502	492	0	736	38	14	
13	0	0	0	0	511	494	0	686	38	14	
14	0	0	0	0	503	495	0	601	38	14	
15	0	0	0	0	513	496	0	551	38	14	
0	0	0	0	0	503	496	0	562	38	14	
1	0	0	0	0	515	497	0	611	38	14	
2	0	0	0	0	515	499	0	640	38	14	
3	0	0	0	0	507	499	0	696	38	14	
4	0	0	0	0	505	501	0	742	38	14	
5	0	0	0	0	507	502	0	777	38	14	
6	0	0	0	0	509	503	0	731	38	14	
7	0	0	0	0	508	503	0	623	38	14	
8	0	0	0	0	509	503	0	506	38	14	
9	0	0	0	0	510	504	0	432	38	14	
10	0	0	0	0	502	504	0	445	38	14	
11	0	0	0	0	512	503	0	447	38	14	
12	0	0	0	0	511	504	0	465	38	14	
13	0	0	0	0	507	504	0	481	38	14	
14	0	0	0	0	509	504	0	535	38	14	
15	0	0	0	0	509	505	0	544	38	14	
0	0	0	0	0	512	507	0	611	38	14	
1	0	0	0	0	509	506	0	685	38	14	
2	0	0	0	0	508	507	0	747	38	14	
3	0	0	0	0	501	506	0	755	38	14	
4	0	0	0	0	507	507	0	675	38	14	
5	0	0	0	0	504	508	0	508	38	14	
6	0	0	0	0	512	509	0	312	38	14	
7	0	0	0	0	512	509	0	228	38	14	
8	0	0	0	0	512	510	0	238	38	14	
9	0	0	0	0	515	511	0	270	38	14	
10	0	0	0	0	498	512	0	339	38	14	
11	0	0	0	0	507	511	0	399	38	14	
12	0	0	0	0	514	511	0	437	38	14	
13	0	0	0	0	507	511	0	458	38	14	
14	0	0	0	0	513	511	0	529	38	14	
15	0	0	0	0	513	511	0	528	38	14	
0	0	0	0	0	503	512	0	504	38	14	
1	0	0	0	0	506	512	0	455	38	14	
2	0	0	0	0	506	513	0	395	38	14	
3	0	0	0	0	513	513	0	292	38	14	
4	0	0	0	0	507	513	0	209	38	14	
5	0	0	0	0	510	514	0	195	38	14	
6	0	0	0	0	505	514	0	171	38	14	
7	0	0	0	0	511	514	0	198	38	14	
8	0	0	0	0	505	513	0	198	38	14	
9	0	0	0	0	511	513	0	161	38	14	
10	0	0	0	0	512	513	0	100	38	14	
11	0	0	0	0	509	513	0	51	38	14	
12	0	0	0	0	509	514	0	0	38	14	
13	0	0	0	0	510	513	0	0	38	14	
14	0	0	0	0	505	513	0	70	38	14	
15	0	0	0	0	508	514	0	230	38	14	
0	0	0	0	0	505	514	0	446	38	14	
1	0	0	0	0	512	513	0	647	38	14	
2	0	0	0	0	508	514	0	764	38	14	
3	0	0	0	0	502	515	0	821	38	14	
4	0	0	0	0	507	516	0	854	38	14	
5	0	0	0	0	506	516	0	910	38	14	
6	0	0	0	0	514	516	0	979	38	14	
7	0	0	0	0	514	516	0	1015	38	14	
8	0	0	0	0	511	516	0	1018	38	14	
9	0	0	0	0	509	516	0	1017	38	14	
10	0	0	0	0	508	516	0	1017	38	14	
11	0	0	0	0	506	515	0	804	38	14	
12	0	0	0	0	509	517	0	717	38	14	
13	0	0	0	0	508	517	0	650	38	14	
14	0	0	0	0	513	518	0	615	38	14	
15	0	0	0	0	510	518	0	583	38	14	
0	0	0	0	0	511	518	0	512	38	14	
1	0	0	0	0	515	519	0	425	38	14	
2	0	0	0	0	511	520	0	386	38	14	
3	0	0	0	0	508	519	0	381	38	14	
4	0	0	0	0	503	519	0	386	38	14	
5	0	0	0	0	507	519	0	417	38	14	
6	0	0	0	0	510	520	0	377	38	14	
7	0	0	0	0	508	520	0	341	38	14	
8	0	0	0	0	508	520	0	325	38	14	
9	0	0	0	0	506	519	0	382	38	14	
10	0	0	0	0	513	519	0	467	38	14	
11	0	0	0	0	507	519	0	568	38	14	
12	0	0	0	0	509	520	0	722	38	14	
13	0	0	0	0	506	520	0	845	38	14	
14	0	0	0	0	507	520	0	925	38	14	
15	0	0	0	0	507	520	0	1009	38	14	
0	0	0	0	0	503	521	0	1018	38	14	
1	0	0	0	0	506	521	0	1018	38	14	
2	0	0	0	0	507	521	0	1018	38	14	
3	0	0	0	0	515	522	0	1018	38	14	
4	0	0	0	0	514	522	0	1018	38	14	
5	0	0	0	0	512	523	0	1018	38	14	
6	0	0	0	0	509	523	0	963	38	14	
7	0	0	0	0	513	524	0	904	38	14	
8	0	0	0	0	511	524	0	879	38	14	
9	0	0	0	0	510	523	0	894	38	14	
10	0	0	0	0	504	524	0	895	38	14	
11	0	0	0	0	504	524	0	862	38	14	
12	0	0	0	0	512	524	0	791	38	14	
13	0	0	0	0	510	524	0	716	38	14	
14	0	0	0	0	508	523	0	609	38	14	
15	0	0	0	0	508	524	0	508	38	14	
0	0	0	0	0	511	524	0	454	38	14	
1	0	0	0	0	512	526	0	363	38	14	
2	0	0	0	0	506	527	0	265	38	14	
3	0	0	0	0	504	526	0	222	38	14	
4	0	0	0	0	504	526	0	190	38	14	
5	0	0	0	0	511	526	0	148	38	14	
6	0	0	0	0	513	526	0	64	38	14	
7	0	0	0	0	513	526	0	15	38	14	
8	0	0	0	0	511	525	0	3	38	14	
9	0	0	0	0	508	525	0	35	38	14	
10	0	0	0	0	504	525	0	156	38	14	
11	0	0	0	0	508	526	0	267	38	14	
12	0	0	0	0	506	526	0	364	38	14	
13	0	0	0	0	512	527	0	452	38	14	
14	0	0	0	0	513	527	0	488	38	14	
15	0	0	0	0	505	527	0	532	38	14	
0	0	0	0	0	506	527	0	616	38	14	
1	0	0	0	0	515	526	0	686	38	14	
2	0	0	0	0	508	527	0	759	38	14	
3	0	0	0	0	505	527	0	819	38	14	
4	0	0	0	0	510	527	0	836	38	14	
5	0	0	0	0	505	528	0	771	38	14	
6	0	0	0	0	508	528	0	712	38	14	
7	0	0	0	0	504	528	0	719	38	14	
8	0	0	0	0	512	529	0	700	38	14	
9	0	0	0	0	508	529	0	702	38	14	
10	0	0	0	0	509	530	0	696	38	14	
11	0	0	0	0	505	530	0	661	38	14	
12	0	0	0	0	506	530	0	646	38	14	
13	0	0	0	0	505	531	0	677	38	14	
14	0	0	0	0	510	531	0	701	38	14	
15	0	0	0	0	519	532	0	680	38	14	
0	0	0	0	0	508	532	0	680	38	14	
1	0	0	0	0	511	532	0	727	38	14	
2	0	0	0	0	508	532	0	755	38	14	
3	0	0	0	0	506	533	0	802	38	14	
4	0	0	0	0	505	533	0	880	38	14	
5	0	0	0	0	507	533	0	951	38	14	
6	0	0	0	0	507	534	0	962	38	14	
7	0	0	0	0	506	535	0	961	38	14	
8	0	0	0	0	504	535	0	924	38	14	
9	0	0	0	0	514	536	0	821	38	14	
10	0	0	0	0	508	535	0	756	38	14	
11	0	0	0	0	509	535	0	781	38	14	
12	0	0	0	0	501	535	0	808	38	14	
13	0	0	0	0	512	535	0	814	38	14	
14	0	0	0	0	508	535	0	844	38	14	
15	0	0	0	0	511	535	0	808	38	14	
0	0	0	0	0	506	535	0	766	38	14	
1	0	0	0	0	511	536	0	796	38	14	
2	0	0	0	0	508	536	0	858	38	14	
3	0	0	0	0	511	536	0	904	38	14	
4	0	0	0	0	509	536	0	958	38	14	
5	0	0	0	0	506	536	0	943	38	14	
6	0	0	0	0	505	536	0	906	38	14	
7	0	0	0	0	514	536	0	845	38	14	
8	0	0	0	0	508	537	0	788	38	14	
9	0	0	0	0	512	536	0	757	38	14	
10	0	0	0	0	508	537	0	692	38	14	
11	0	0	0	0	511	539	0	542	38	14	
12	0	0	0	0	511	539	0	455	38	14	
13	0	0	0	0	511	538	0	406	38	14	
14	0	0	0	0	513	537	0	391	38	14	
15	0	0	0	0	509	537	0	355	38	14	
0	0	0	0	0	509	536	0	351	38	14	
1	0	0	0	0	503	536	0	352	38	14	
2	0	0	0	0	514	536	0	328	38	14	
3	0	0	0	0	514	536	0	379	38	14	
4	0	0	0	0	509	536	0	436	38	14	
5	0	0	0	0	500	536	0	515	38	14	
6	0	0	0	0	504	536	0	599	38	14	
7	0	0	0	0	506	537	0	654	38	14	
8	0	0	0	0	509	536	0	674	38	14	
9	0	0	0	0	505	536	0	629	38	14	
10	0	0	0	0	509	535	0	585	38	14	
11	0	0	0	0	505	534	0	478	38	14	
12	0	0	0	0	505	535	0	376	38	14	
13	0	0	0	0	512	534	0	321	38	14	
14	0	0	0	0	513	534	0	231	38	14	
15	0	0	0	0	512	533	0	159	38	14	
0	0	0	0	0	506	531	0	129	38	14	
1	0	0	0	0	510	530	0	138	38	14	
2	0	0	0	0	508	530	0	188	38	14	
3	0	0	0	0	509	529	0	275	38	14	
4	0	0	0	0	514	528	0	365	38	14	
5	0	0	0	0	512	528	0	406	38	14	
6	0	0	0	0	511	527	0	500	38	14	
7	0	0	0	0	511	527	0	602	38	14	
8	0	0	0	0	509	527	0	661	38	14	
9	0	0	0	0	509	526	0	652	38	14	
10	0	0	0	0	506	526	0	618	38	14	
11	0	0	0	0	507	524	0	588	38	14	
12	0	0	0	0	514	523	0	540	38	14	
13	0	0	0	0	508	522	0	518	38	14	
14	0	0	0	0	504	521	0	484	38	14	
15	0	0	0	0	511	521	0	451	38	14	
0	0	0	0	0	499	520	0	397	38	14	
1	0	0	0	0	517	519	0	325	38	14	
2	0	0	0	0	508	517	0	204	38	14	
3	0	0	0	0	505	515	0	64	38	14	
4	0	0	0	0	511	514	0	0	38	14	
5	0	0	0	0	503	513	0	0	38	14	
6	0	0	0	0	501	511	0	0	38	14	
7	0	0	0	0	505	509	0	0	38	14	
8	0	0	0	0	509	508	0	0	38	14	
9	0	0	0	0	504	506	0	0	38	14	
10	0	0	0	0	518	505	0	0	38	14	
11	0	0	0	0	511	505	0	108	38	14	
12	0	0	0	0	509	504	0	248	38	14	
13	0	0	0	0	509	503	0	422	38	14	
14	0	0	0	0	511	502	0	521	38	14	
15	0	0	0	0	510	501	0	556	38	14	
0	0	0	0	0	506	499	0	492	38	14	
1	0	0	0	0	509	498	0	316	38	14	
2	0	0	0	0	513	497	0	51	38	14	
3	0	0	0	0	515	496	0	0	38	14	
4	0	0	0	0	508	496	0	0	38	14	
5	0	0	0	0	514	496	0	0	38	14	
6	0	0	0	0	501	494	0	0	38	14	
7	0	0	0	0	511	492	0	0	38	14	
8	0	0	0	0	514	489	0	0	38	14	
9	0	0	0	0	504	488	0	0	38	14	
10	0	0	0	0	502	487	0	0	38	14	
11	0	0	0	0	504	486	0	0	38	14	
12	0	0	0	0	512	485	0	0	38	14	
13	0	0	0	0	513	484	0	0	38	14	
14	0	0	0	0	511	484	0	0	38	14	
15	0	0	0	0	505	486	0	173	38	14	
0	0	0	0	0	512	485	0	251	38	14	
1	0	0	0	0	510	484	0	328	38	14	
2	0	0	0	0	503	484	0	439	38	14	
3	0	0	0	0	510	483	0	603	38	14	
4	0	0	0	0	508	482	0	742	38	14	
5	0	0	0	0	509	482	0	804	38	14	
6	0	0	0	0	510	483	0	822	38	14	
7	0	0	0	0	514	483	0	851	38	14	
8	0	0	0	0	507	483	0	851	38	14	
9	0	0	0	0	511	482	0	849	38	14	
10	0	0	0	0	509	482	0	748	38	14	
11	0	0	0	0	510	481	0	567	38	14	
12	0	0	0	0	508	481	0	421	38	14	
13	0	0	0	0	514	481	0	327	38	14	
14	0	0	0	0	511	482	0	335	38	14	
15	0	0	0	0	502	481	0	361	38	14	
0	0	0	0	0	508	481	0	398	38	14	
1	0	0	0	0	514	481	0	441	38	14	
2	0	0	0	0	508	481	0	534	38	14	
3	0	0	0	0	511	481	0	628	38	14	
4	0	0	0	0	508	481	0	760	38	14	
5	0	0	0	0	505	481	0	852	38	14	
6	0	0	0	0	508	482	0	871	38	14	
7	0	0	0	0	508	483	0	807	38	14	
8	0	0	0	0	516	482	0	761	38	14	
9	0	0	0	0	509	482	0	774	38	14	
10	0	0	0	0	509	482	0	781	38	14	
11	0	0	0	0	511	482	0	821	38	14	
12	0	0	0	0	501	482	0	821	38	14	
13	0	0	0	0	512	483	0	782	38	14	
14	0	0	0	0	511	483	0	760	38	14	
15	0	0	0	0	510	484	0	717	38	14	
0	0	0	0	0	510	484	0	704	38	14	
1	0	0	0	0	502	485	0	688	38	14	
2	0	0	0	0	507	485	0	689	38	14	
3	0	0	0	0	507	485	0	696	38	14	
4	0	0	0	0	510	485	0	723	38	14	
5	0	0	0	0	506	485	0	738	38	14	
6	0	0	0	0	506	485	0	743	38	14	
7	0	0	0	0	508	484	0	763	38	14	
8	0	0	0	0	505	484	0	745	38	14	
9	0	0	0	0	511	484	0	720	38	14	
10	0	0	0	0	510	485	0	688	38	14	
11	0	0	0	0	512	484	0	574	38	14	
12	0	0	0	0	507	484	0	476	38	14	
13	0	0	0	0	503	483	0	434	38	14	
14	0	0	0	0	507	483	0	433	38	14	
15	0	0	0	0	504	484	0	344	38	14	
0	0	0	0	0	515	484	0	218	38	14	
1	0	0	0	0	506	484	0	224	38	14	
2	0	0	0	0	504	486	0	319	38	14	
3	0	0	0	0	510	487	0	467	38	14	
4	0	0	0	0	509	486	0	619	38	14	
5	0	0	0	0	510	486	0	736	38	14	
6	0	0	0	0	517	486	0	814	38	14	
7	0	0	0	0	504	486	0	857	38	14	
8	0	0	0	0	507	487	0	858	38	14	
9	0	0	0	0	511	487	0	883	38	14	
10	0	0	0	0	511	488	0	924	38	14	
11	0	0	0	0	508	489	0	976	38	14	
12	0	0	0	0	510	490	0	1017	38	14	
13	0	0	0	0	510	490	0	1017	38	14	
14	0	0	0	0	505	490	0	1018	38	14	
15	0	0	0	0	510	491	0	985	38	14	
0	0	0	0	0	514	491	0	970	38	14	
1	0	0	0	0	504	491	0	935	38	14	
2	0	0	0	0	509	492	0	869	38	14	
3	0	0	0	0	511	492	0	810	38	14	
4	0	0	0	0	509	492	0	739	38	14	
5	0	0	0	0	510	492	0	651	38	14	
6	0	0	0	0	505	492	0	553	38	14	
7	0	0	0	0	509	493	0	486	38	14	
8	0	0	0	0	512	493	0	423	38	14	
9	0	0	0	0	513	494	0	385	38	14	
10	0	0	0	0	507	494	0	327	38	14	
11	0	0	0	0	505	494	0	296	38	14	
12	0	0	0	0	506	494	0	332	38	14	
13	0	0	0	0	512	494	0	405	38	14	
14	0	0	0	0	511	494	0	529	38	14	
15	0	0	0	0	503	494	0	641	38	14	
0	0	0	0	0	510	495	0	739	38	14	
1	0	0	0	0	506	496	0	791	38	14	
2	0	0	0	0	509	496	0	764	38	14	
3	0	0	0	0	512	497	0	680	38	14	
4	0	0	0	0	506	497	0	611	38	14	
5	0	0	0	0	508	497	0	536	38	14	
6	0	0	0	0	498	496	0	514	38	14	
7	0	0	0	0	504	496	0	518	38	14	
8	0	0	0	0	510	495	0	524	38	14	
9	0	0	0	0	511	494	0	515	38	14	
10	0	0	0	0	510	495	0	496	38	14	
11	0	0	0	0	514	494	0	504	38	14	
12	0	0	0	0	513	495	0	438	38	14	
13	0	0	0	0	512	495	0	396	38	14	
14	0	0	0	0	511	494	0	441	38	14	
15	0	0	0	0	504	495	0	559	38	14	
0	0	0	0	0	512	495	0	671	38	14	
1	0	0	0	0	517	495	0	791	38	14	
2	0	0	0	0	505	496	0	842	38	14	
3	0	0	0	0	504	496	0	846	38	14	
4	0	0	0	0	509	496	0	870	38	14	
5	0	0	0	0	507	496	0	943	38	14	
6	0	0	0	0	509	497	0	1016	38	14	
7	0	0	0	0	502	497	0	1018	38	14	
8	0	0	0	0	504	497	0	1018	38	14	
9	0	0	0	0	510	497	0	1018	38	14	
10	0	0	0	0	510	498	0	1018	38	14	
11	0	0	0	0	508	498	0	1018	38	14	
12	0	0	0	0	507	498	0	925	38	14	
13	0	0	0	0	508	498	0	880	38	14	
14	0	0	0	0	511	498	0	865	38	14	
15	0	0	0	0	511	499	0	861	38	14	
0	0	0	0	0	506	500	0	802	38	14	
1	0	0	0	0	502	500	0	743	38	14	
2	0	0	0	0	511	499	0	672	38	14	
3	0	0	0	0	509	499	0	578	38	14	
4	0	0	0	0	503	499	0	429	38	14	
5	0	0	0	0	512	499	0	293	38	14	
6	0	0	0	0	514	498	0	190	38	14	
7	0	0	0	0	511	498	0	136	38	14	
8	0	0	0	0	513	499	0	88	38	14	
9	0	0	0	0	516	499	0	56	38	14	
10	0	0	0	0	517	499	0	60	38	14	
11	0	0	0	0	511	499	0	98	38	14	
12	0	0	0	0	506	499	0	162	38	14	
13	0	0	0	0	505	499	0	188	38	14	
14	0	0	0	0	508	499	0	212	38	14	
15	0	0	0	0	508	500	0	282	38	14	
0	0	0	0	0	504	499	0	271	38	14	
1	0	0	0	0	510	499	0	227	38	14	
2	0	0	0	0	507	500	0	216	38	14	
3	0	0	0	0	508	500	0	151	38	14	
4	0	0	0	0	505	501	0	94	38	14	
5	0	0	0	0	512	501	0	120	38	14	
6	0	0	0	0	505	500	0	215	38	14	
7	0	0	0	0	509	499	0	307	38	14	
8	0	0	0	0	510	498	0	414	38	14	
9	0	0	0	0	508	499	0	520	38	14	
10	0	0	0	0	508	501	0	604	38	14	
11	0	0	0	0	513	501	0	645	38	14	
12	0	0	0	0	507	502	0	658	38	14	
13	0	0	0	0	513	503	0	686	38	14	
14	0	0	0	0	515	503	0	739	38	14	
15	0	0	0	0	506	504	0	787	38	14	
0	0	0	0	0	502	504	0	864	38	14	
1	0	0	0	0	501	505	0	940	38	14	
2	0	0	0	0	506	505	0	991	38	14	
3	0	0	0	0	514	506	0	1013	38	14	
4	0	0	0	0	508	507	0	989	38	14	
5	0	0	0	0	513	507	0	934	38	14	
6	0	0	0	0	510	507	0	862	38	14	
7	0	0	0	0	507	507	0	802	38	14	
8	0	0	0	0	508	507	0	751	38	14	
9	0	0	0	0	505	506	0	684	38	14	
10	0	0	0	0	511	506	0	610	38	14	
11	0	0	0	0	507	506	0	550	38	14	
12	0	0	0	0	512	506	0	484	38	14	
13	0	0	0	0	510	506	0	448	38	14	
14	0	0	0	0	504	507	0	399	38	14	
15	0	0	0	0	502	507	0	279	38	14	
0	0	0	0	0	519	507	0	78	38	14	
1	0	0	0	0	505	508	0	0	38	14	
2	0	0	0	0	509	508	0	0	38	14	
3	0	0	0	0	512	509	0	0	38	14	
4	0	0	0	0	510	510	0	0	38	14	
5	0	0	0	0	511	510	0	0	38	14	
6	0	0	0	0	509	511	0	0	38	14	
7	0	0	0	0	505	512	0	0	38	14	
8	0	0	0	0	517	513	0	0	38	14	
9	0	0	0	0	504	513	0	0	38	14	
10	0	0	0	0	508	513	0	0	38	14	
11	0	0	0	0	504	513	0	0	38	14	
12	0	0	0	0	512	513	0	0	38	14	
13	0	0	0	0	513	513	0	120	38	14	
14	0	0	0	0	506	514	0	215	38	14	
15	0	0	0	0	508	514	0	247	38	14	
0	0	0	0	0	510	513	0	248	38	14	
1	0	0	0	0	509	513	0	305	38	14	
2	0	0	0	0	512	515	0	315	38	14	
3	0	0	0	0	512	515	0	331	38	14	
4	0	0	0	0	507	516	0	338	38	14	
5	0	0	0	0	505	516	0	312	38	14	
6	0	0	0	0	506	516	0	236	38	14	
7	0	0	0	0	514	517	0	120	38	14	
8	0	0	0	0	508	517	0	95	38	14	
9	0	0	0	0	504	517	0	116	38	14	
10	0	0	0	0	502	516	0	96	38	14	
11	0	0	0	0	504	515	0	71	38	14	
12	0	0	0	0	507	514	0	93	38	14	
13	0	0	0	0	508	514	0	197	38	14	
14	0	0	0	0	507	513	0	344	38	14	
15	0	0	0	0	518	513	0	470	38	14	
0	0	0	0	0	513	512	0	554	38	14	
1	0	0	0	0	508	513	0	527	38	14	
2	0	0	0	0	505	512	0	487	38	14	
3	0	0	0	0	507	513	0	325	38	14	
4	0	0	0	0	514	514	0	97	38	14	
5	0	0	0	0	511	514	0	0	38	14	
6	0	0	0	0	511	515	0	0	38	14	
7	0	0	0	0	508	515	0	0	38	14	
8	0	0	0	0	505	515	0	0	38	14	
9	0	0	0	0	502	515	0	0	38	14	
10	0	0	0	0	508	514	0	0	38	14	
11	0	0	0	0	506	513	0	88	38	14	
12	0	0	0	0	502	513	0	190	38	14	
13	0	0	0	0	512	513	0	267	38	14	
14	0	0	0	0	509	512	0	315	38	14	
15	0	0	0	0	514	512	0	334	38	14	
0	0	0	0	0	512	512	0	369	38	14	
1	0	0	0	0	505	512	0	319	38	14	
2	0	0	0	0	510	512	0	212	38	14	
3	0	0	0	0	506	512	0	73	38	14	
4	0	0	0	0	513	512	0	0	38	14	
5	0	0	0	0	510	512	0	0	38	14	
6	0	0	0	0	505	512	0	0	38	14	
7	0	0	0	0	508	512	0	0	38	14	
8	0	0	0	0	511	512	0	0	38	14	
9	0	0	0	0	508	512	0	0	38	14	
10	0	0	0	0	506	511	0	0	38	14	
11	0	0	0	0	518	509	0	0	38	14	
12	0	0	0	0	507	507	0	0	38	14	
13	0	0	0	0	505	505	0	0	38	14	
14	0	0	0	0	512	504	0	0	38	14	
15	0	0	0	0	504	503	0	124	38	14	
0	0	0	0	0	504	501	0	172	38	14	
1	0	0	0	0	507	500	0	252	38	14	
2	0	0	0	0	506	500	0	312	38	14	
3	0	0	0	0	513	500	0	323	38	14	
4	0	0	0	0	505	500	0	347	38	14	
5	0	0	0	0	508	500	0	372	38	14	
6	0	0	0	0	508	501	0	399	38	14	
7	0	0	0	0	511	501	0	457	38	14	
8	0	0	0	0	507	501	0	513	38	14	
9	0	0	0	0	513	501	0	579	38	14	
10	0	0	0	0	507	501	0	683	38	14	
11	0	0	0	0	511	501	0	757	38	14	
12	0	0	0	0	506	500	0	745	38	14	
13	0	0	0	0	511	499	0	673	38	14	
14	0	0	0	0	502	498	0	561	38	14	
15	0	0	0	0	514	497	0	540	38	14	
0	0	0	0	0	507	497	0	583	38	14	
1	0	0	0	0	517	497	0	644	38	14	
2	0	0	0	0	509	496	0	693	38	14	
3	0	0	0	0	511	496	0	736	38	14	
4	0	0	0	0	504	496	0	780	38	14	
5	0	0	0	0	510	496	0	801	38	14	
6	0	0	0	0	509	496	0	826	38	14	
7	0	0	0	0	504	497	0	875	38	14	
8	0	0	0	0	509	497	0	887	38	14	
9	0	0	0	0	505	496	0	858	38	14	
10	0	0	0	0	507	496	0	825	38	14	
11	0	0	0	0	512	496	0	862	38	14	
12	0	0	0	0	512	496	0	834	38	14	
13	0	0	0	0	512	496	0	727	38	14	
14	0	0	0	0	507	497	0	607	38	14	
15	0	0	0	0	504	497	0	489	38	14	
0	0	0	0	0	504	497	0	298	38	14	
1	0	0	0	0	508	497	0	113	38	14	
2	0	0	0	0	509	498	0	0	38	14	
3	0	0	0	0	509	498	0	0	38	14	
4	0	0	0	0	516	499	0	0	38	14	
5	0	0	0	0	513	499	0	0	38	14	
6	0	0	0	0	507	499	0	0	38	14	
7	0	0	0	0	511	499	0	114	38	14	
8	0	0	0	0	511	500	0	163	38	14	
9	0	0	0	0	501	500	0	190	38	14	
10	0	0	0	0	507	500	0	214	38	14	
11	0	0	0	0	511	499	0	268	38	14	
12	0	0	0	0	507	500	0	311	38	14	
13	0	0	0	0	513	499	0	420	38	14	
14	0	0	0	0	502	499	0	593	38	14	
15	0	0	0	0	503	499	0	761	38	14	
0	0	0	0	0	506	499	0	845	38	14	
1	0	0	0	0	509	499	0	901	38	14	
