# OpenSignals Text File Format. Version 1
# {"98:D3:61:FD:78:31": {"position": 0, "device": "bitalino_rev", "device name": "98:D3:61:FD:78:31", "device connection": "BTH98:D3:61:FD:78:31", "sampling rate": 1000, "resolution": [4, 1, 1, 1, 1, 10, 10, 10, 10, 6, 6], "firmware version": 1282, "comments": "", "keywords": "", "mode": 0, "sync interval": 2, "date": "2024-4-19", "time": "9:22:11.178", "channels": [1, 2, 3, 4, 5, 6], "sensor": ["RAW", "ECGBIT", "RAW", "RAW", "RAW", "RAW"], "label": ["A1", "A2", "A3", "A4", "A5", "A6"], "column": ["nSeq", "I1", "I2", "O1", "O2", "A1", "A2", "A3", "A4", "A5", "A6"], "special": [{}, {}, {}, {}, {}, {}], "digital IO": [0, 0, 1, 1], "convertedValues": 0}}
# EndOfHeader
0	0	0	0	0	511	555	0	552	38	13	
1	0	0	0	0	506	560	0	470	38	13	
2	0	0	0	0	508	564	0	348	38	13	
3	0	0	0	0	508	568	0	245	38	13	
4	0	0	0	0	509	570	0	149	38	13	
5	0	0	0	0	505	573	0	54	38	13	
6	0	0	0	0	510	578	0	0	38	13	
7	0	0	0	0	509	583	0	0	38	13	
8	0	0	0	0	504	587	0	0	38	13	
9	0	0	0	0	514	586	0	0	38	13	
10	0	0	0	0	512	583	0	0	38	13	
11	0	0	0	0	513	578	0	0	38	13	
12	0	0	0	0	509	571	0	0	38	13	
13	0	0	0	0	508	561	0	0	38	13	
14	0	0	0	0	514	547	0	0	38	13	
15	0	0	0	0	508	532	0	0	38	13	
0	0	0	0	0	504	520	0	0	38	13	
1	0	0	0	0	507	509	0	0	38	13	
2	0	0	0	0	499	498	0	0	38	13	
3	0	0	0	0	515	487	0	0	38	13	
4	0	0	0	0	515	480	0	0	38	13	
5	0	0	0	0	504	473	0	0	38	13	
6	0	0	0	0	512	467	0	0	38	13	
7	0	0	0	0	507	460	0	0	38	13	
8	0	0	0	0	509	455	0	0	38	13	
9	0	0	0	0	510	452	0	49	38	13	
10	0	0	0	0	512	449	0	63	38	13	
11	0	0	0	0	502	446	0	53	38	13	
12	0	0	0	0	514	443	0	54	38	13	
13	0	0	0	0	507	443	0	51	38	13	
14	0	0	0	0	500	446	0	0	38	13	
15	0	0	0	0	508	446	0	0	38	13	
0	0	0	0	0	504	446	0	0	38	13	
1	0	0	0	0	514	447	0	0	38	13	
2	0	0	0	0	512	448	0	0	38	13	
3	0	0	0	0	514	452	0	0	38	13	
4	0	0	0	0	506	454	0	0	38	13	
5	0	0	0	0	511	456	0	0	38	13	
6	0	0	0	0	508	459	0	0	38	13	
7	0	0	0	0	510	460	0	0	38	13	
8	0	0	0	0	509	461	0	0	38	13	
9	0	0	0	0	512	462	0	0	38	13	
10	0	0	0	0	508	466	0	0	38	13	
11	0	0	0	0	508	470	0	0	38	13	
12	0	0	0	0	515	473	0	0	38	13	
13	0	0	0	0	507	475	0	0	38	13	
14	0	0	0	0	504	479	0	0	38	13	
15	0	0	0	0	504	482	0	0	38	13	
0	0	0	0	0	507	485	0	0	38	13	
1	0	0	0	0	510	487	0	0	38	13	
2	0	0	0	0	515	488	0	0	38	13	
3	0	0	0	0	512	491	0	0	38	13	
4	0	0	0	0	508	491	0	51	38	13	
5	0	0	0	0	505	494	0	92	38	13	
6	0	0	0	0	507	499	0	131	38	13	
7	0	0	0	0	512	504	0	158	38	13	
8	0	0	0	0	512	507	0	198	38	13	
9	0	0	0	0	508	505	0	210	38	13	
10	0	0	0	0	510	504	0	222	38	13	
11	0	0	0	0	502	507	0	238	38	13	
12	0	0	0	0	505	510	0	248	38	13	
13	0	0	0	0	517	513	0	248	38	13	
14	0	0	0	0	508	516	0	245	38	13	
15	0	0	0	0	507	517	0	236	38	13	
0	0	0	0	0	508	515	0	193	38	13	
1	0	0	0	0	503	514	0	147	38	13	
2	0	0	0	0	518	515	0	116	38	13	
3	0	0	0	0	511	515	0	107	38	13	
4	0	0	0	0	505	515	0	116	38	13	
5	0	0	0	0	508	517	0	121	38	13	
6	0	0	0	0	508	518	0	112	38	13	
7	0	0	0	0	508	519	0	140	38	13	
8	0	0	0	0	506	519	0	159	38	13	
9	0	0	0	0	506	519	0	163	38	13	
10	0	0	0	0	505	521	0	189	38	13	
11	0	0	0	0	511	525	0	201	38	13	
12	0	0	0	0	509	527	0	175	38	13	
13	0	0	0	0	508	526	0	133	38	13	
14	0	0	0	0	507	524	0	122	38	13	
15	0	0	0	0	510	523	0	134	38	13	
0	0	0	0	0	518	525	0	191	38	13	
1	0	0	0	0	510	524	0	233	38	13	
2	0	0	0	0	503	524	0	269	38	13	
3	0	0	0	0	509	525	0	288	38	13	
4	0	0	0	0	505	524	0	287	38	13	
5	0	0	0	0	508	521	0	272	38	13	
6	0	0	0	0	507	521	0	287	38	13	
7	0	0	0	0	506	524	0	300	38	13	
8	0	0	0	0	504	527	0	307	38	13	
9	0	0	0	0	515	528	0	331	38	13	
10	0	0	0	0	517	527	0	356	38	13	
11	0	0	0	0	503	528	0	348	38	13	
12	0	0	0	0	507	528	0	324	38	13	
13	0	0	0	0	507	527	0	304	38	13	
14	0	0	0	0	508	529	0	293	38	13	
15	0	0	0	0	511	529	0	261	38	13	
0	0	0	0	0	504	529	0	253	38	13	
1	0	0	0	0	512	529	0	259	38	13	
2	0	0	0	0	510	528	0	294	38	13	
3	0	0	0	0	511	527	0	352	38	13	
4	0	0	0	0	507	528	0	373	38	13	
5	0	0	0	0	510	527	0	395	38	13	
6	0	0	0	0	512	524	0	410	38	13	
7	0	0	0	0	510	525	0	412	38	13	
8	0	0	0	0	511	524	0	409	38	13	
9	0	0	0	0	512	526	0	400	38	13	
10	0	0	0	0	504	531	0	385	38	13	
11	0	0	0	0	500	531	0	374	38	13	
12	0	0	0	0	509	531	0	384	38	13	
13	0	0	0	0	514	531	0	400	38	13	
14	0	0	0	0	508	532	0	439	38	13	
15	0	0	0	0	513	534	0	466	38	13	
0	0	0	0	0	507	531	0	478	38	13	
1	0	0	0	0	505	529	0	500	38	13	
2	0	0	0	0	510	530	0	516	38	13	
3	0	0	0	0	507	531	0	524	38	13	
4	0	0	0	0	509	530	0	510	38	13	
5	0	0	0	0	506	531	0	484	38	13	
6	0	0	0	0	507	534	0	477	38	13	
7	0	0	0	0	510	533	0	468	38	13	
8	0	0	0	0	510	538	0	460	38	13	
9	0	0	0	0	508	540	0	466	38	13	
10	0	0	0	0	503	538	0	470	38	13	
11	0	0	0	0	515	536	0	480	38	13	
12	0	0	0	0	516	536	0	492	38	13	
13	0	0	0	0	505	538	0	518	38	13	
14	0	0	0	0	504	537	0	524	38	13	
15	0	0	0	0	512	539	0	531	38	13	
0	0	0	0	0	511	543	0	548	38	13	
1	0	0	0	0	513	545	0	550	38	13	
2	0	0	0	0	503	546	0	532	38	13	
3	0	0	0	0	505	548	0	530	38	13	
4	0	0	0	0	511	548	0	503	38	13	
5	0	0	0	0	514	548	0	481	38	13	
6	0	0	0	0	508	550	0	471	38	13	
7	0	0	0	0	510	550	0	434	38	13	
8	0	0	0	0	509	550	0	417	38	13	
9	0	0	0	0	508	550	0	425	38	13	
10	0	0	0	0	507	550	0	449	38	13	
11	0	0	0	0	508	550	0	482	38	13	
12	0	0	0	0	508	551	0	498	38	13	
13	0	0	0	0	502	552	0	527	38	13	
14	0	0	0	0	511	553	0	566	38	13	
15	0	0	0	0	514	551	0	591	38	13	
0	0	0	0	0	510	551	0	573	38	13	
1	0	0	0	0	508	553	0	566	38	13	
2	0	0	0	0	507	556	0	552	38	13	
3	0	0	0	0	511	556	0	532	38	13	
4	0	0	0	0	505	556	0	533	38	13	
5	0	0	0	0	510	556	0	534	38	13	
6	0	0	0	0	513	557	0	505	38	13	
7	0	0	0	0	506	556	0	476	38	13	
8	0	0	0	0	517	555	0	454	38	13	
9	0	0	0	0	509	555	0	473	38	13	
10	0	0	0	0	504	556	0	499	38	13	
11	0	0	0	0	508	556	0	524	38	13	
12	0	0	0	0	517	557	0	551	38	13	
13	0	0	0	0	515	557	0	568	38	13	
14	0	0	0	0	510	554	0	603	38	13	
15	0	0	0	0	509	552	0	633	38	13	
0	0	0	0	0	508	552	0	629	38	13	
1	0	0	0	0	507	553	0	612	38	13	
2	0	0	0	0	509	552	0	590	38	13	
3	0	0	0	0	504	553	0	596	38	13	
4	0	0	0	0	501	555	0	573	38	13	
5	0	0	0	0	511	555	0	536	38	13	
6	0	0	0	0	508	554	0	520	38	13	
7	0	0	0	0	507	554	0	502	38	13	
8	0	0	0	0	512	553	0	472	38	13	
9	0	0	0	0	515	551	0	432	38	13	
10	0	0	0	0	506	551	0	412	38	13	
11	0	0	0	0	509	553	0	433	38	13	
12	0	0	0	0	510	553	0	456	38	13	
13	0	0	0	0	503	553	0	483	38	13	
14	0	0	0	0	509	553	0	512	38	13	
15	0	0	0	0	510	551	0	537	38	13	
0	0	0	0	0	506	550	0	553	38	13	
1	0	0	0	0	505	551	0	555	38	13	
2	0	0	0	0	507	551	0	576	38	13	
3	0	0	0	0	507	546	0	599	38	13	
4	0	0	0	0	511	545	0	594	38	13	
5	0	0	0	0	510	544	0	564	38	13	
6	0	0	0	0	502	542	0	542	38	13	
7	0	0	0	0	503	540	0	530	38	13	
8	0	0	0	0	507	538	0	512	38	13	
9	0	0	0	0	513	539	0	508	38	13	
10	0	0	0	0	501	539	0	487	38	13	
11	0	0	0	0	512	536	0	445	38	13	
12	0	0	0	0	504	533	0	426	38	13	
13	0	0	0	0	516	528	0	422	38	13	
14	0	0	0	0	516	526	0	439	38	13	
15	0	0	0	0	511	527	0	450	38	13	
0	0	0	0	0	516	530	0	433	38	13	
1	0	0	0	0	502	530	0	402	38	13	
2	0	0	0	0	519	529	0	383	38	13	
3	0	0	0	0	507	529	0	368	38	13	
4	0	0	0	0	510	526	0	339	38	13	
5	0	0	0	0	505	521	0	331	38	13	
6	0	0	0	0	504	516	0	335	38	13	
7	0	0	0	0	510	513	0	341	38	13	
8	0	0	0	0	503	511	0	361	38	13	
9	0	0	0	0	511	510	0	403	38	13	
10	0	0	0	0	509	509	0	440	38	13	
11	0	0	0	0	508	508	0	462	38	13	
12	0	0	0	0	511	508	0	426	38	13	
13	0	0	0	0	509	508	0	361	38	13	
14	0	0	0	0	509	507	0	351	38	13	
15	0	0	0	0	506	505	0	372	38	13	
0	0	0	0	0	507	503	0	400	38	13	
1	0	0	0	0	511	502	0	444	38	13	
2	0	0	0	0	508	500	0	465	38	13	
3	0	0	0	0	514	500	0	464	38	13	
4	0	0	0	0	508	500	0	493	38	13	
5	0	0	0	0	513	498	0	554	38	13	
6	0	0	0	0	511	495	0	602	38	13	
7	0	0	0	0	507	496	0	598	38	13	
8	0	0	0	0	511	496	0	594	38	13	
9	0	0	0	0	517	496	0	581	38	13	
10	0	0	0	0	507	493	0	563	38	13	
11	0	0	0	0	502	492	0	549	38	13	
12	0	0	0	0	511	494	0	545	38	13	
13	0	0	0	0	507	494	0	566	38	13	
14	0	0	0	0	505	490	0	593	38	13	
15	0	0	0	0	504	493	0	669	38	13	
0	0	0	0	0	505	495	0	722	38	13	
1	0	0	0	0	509	493	0	705	38	13	
2	0	0	0	0	510	492	0	662	38	13	
3	0	0	0	0	508	492	0	595	38	13	
4	0	0	0	0	513	492	0	463	38	13	
5	0	0	0	0	507	492	0	380	38	13	
6	0	0	0	0	513	489	0	359	38	13	
7	0	0	0	0	511	486	0	388	38	13	
8	0	0	0	0	513	484	0	432	38	13	
9	0	0	0	0	508	483	0	488	38	13	
10	0	0	0	0	507	488	0	531	38	13	
11	0	0	0	0	505	491	0	564	38	13	
12	0	0	0	0	508	488	0	563	38	13	
13	0	0	0	0	511	490	0	544	38	13	
14	0	0	0	0	506	489	0	540	38	13	
15	0	0	0	0	507	488	0	567	38	13	
0	0	0	0	0	504	491	0	594	38	13	
1	0	0	0	0	507	495	0	604	38	13	
2	0	0	0	0	504	496	0	598	38	13	
3	0	0	0	0	506	496	0	544	38	13	
4	0	0	0	0	519	495	0	511	38	13	
5	0	0	0	0	507	493	0	499	38	13	
6	0	0	0	0	510	490	0	523	38	13	
7	0	0	0	0	504	487	0	547	38	13	
8	0	0	0	0	507	489	0	576	38	13	
9	0	0	0	0	511	492	0	607	38	13	
10	0	0	0	0	513	495	0	575	38	13	
11	0	0	0	0	504	495	0	556	38	13	
12	0	0	0	0	515	494	0	553	38	13	
13	0	0	0	0	512	494	0	556	38	13	
14	0	0	0	0	508	492	0	592	38	13	
15	0	0	0	0	510	492	0	606	38	13	
0	0	0	0	0	513	490	0	616	38	13	
1	0	0	0	0	512	488	0	624	38	13	
2	0	0	0	0	508	491	0	627	38	13	
3	0	0	0	0	506	493	0	638	38	13	
4	0	0	0	0	507	495	0	634	38	13	
5	0	0	0	0	505	494	0	623	38	13	
6	0	0	0	0	507	493	0	622	38	13	
7	0	0	0	0	505	494	0	636	38	13	
8	0	0	0	0	508	495	0	675	38	13	
9	0	0	0	0	510	494	0	688	38	13	
10	0	0	0	0	509	494	0	668	38	13	
11	0	0	0	0	510	494	0	643	38	13	
12	0	0	0	0	505	496	0	649	38	13	
13	0	0	0	0	507	498	0	679	38	13	
14	0	0	0	0	508	496	0	693	38	13	
15	0	0	0	0	510	496	0	697	38	13	
0	0	0	0	0	509	497	0	685	38	13	
1	0	0	0	0	505	496	0	641	38	13	
2	0	0	0	0	508	499	0	577	38	13	
3	0	0	0	0	505	502	0	525	38	13	
4	0	0	0	0	509	500	0	507	38	13	
5	0	0	0	0	507	498	0	485	38	13	
6	0	0	0	0	506	501	0	449	38	13	
7	0	0	0	0	511	501	0	410	38	13	
8	0	0	0	0	506	501	0	384	38	13	
9	0	0	0	0	513	502	0	369	38	13	
10	0	0	0	0	508	504	0	397	38	13	
11	0	0	0	0	504	505	0	452	38	13	
12	0	0	0	0	511	504	0	497	38	13	
13	0	0	0	0	503	504	0	475	38	13	
14	0	0	0	0	506	504	0	432	38	13	
15	0	0	0	0	508	504	0	417	38	13	
0	0	0	0	0	510	506	0	444	38	13	
1	0	0	0	0	513	505	0	484	38	13	
2	0	0	0	0	507	504	0	531	38	13	
3	0	0	0	0	513	504	0	588	38	13	
4	0	0	0	0	513	503	0	614	38	13	
5	0	0	0	0	510	503	0	600	38	13	
6	0	0	0	0	513	501	0	607	38	13	
7	0	0	0	0	508	503	0	603	38	13	
8	0	0	0	0	512	504	0	601	38	13	
9	0	0	0	0	507	508	0	597	38	13	
10	0	0	0	0	511	506	0	624	38	13	
11	0	0	0	0	511	502	0	664	38	13	
12	0	0	0	0	507	503	0	673	38	13	
13	0	0	0	0	503	502	0	647	38	13	
14	0	0	0	0	508	500	0	614	38	13	
15	0	0	0	0	507	501	0	576	38	13	
0	0	0	0	0	507	501	0	538	38	13	
1	0	0	0	0	511	500	0	463	38	13	
2	0	0	0	0	506	499	0	355	38	13	
3	0	0	0	0	512	496	0	297	38	13	
4	0	0	0	0	508	497	0	315	38	13	
5	0	0	0	0	511	499	0	360	38	13	
6	0	0	0	0	510	501	0	423	38	13	
7	0	0	0	0	509	499	0	484	38	13	
8	0	0	0	0	507	499	0	522	38	13	
9	0	0	0	0	511	500	0	559	38	13	
10	0	0	0	0	505	500	0	611	38	13	
11	0	0	0	0	513	503	0	641	38	13	
12	0	0	0	0	509	502	0	676	38	13	
13	0	0	0	0	505	500	0	704	38	13	
14	0	0	0	0	510	500	0	728	38	13	
15	0	0	0	0	506	499	0	752	38	13	
0	0	0	0	0	510	495	0	770	38	13	
1	0	0	0	0	507	494	0	760	38	13	
2	0	0	0	0	507	494	0	732	38	13	
3	0	0	0	0	506	493	0	713	38	13	
4	0	0	0	0	514	493	0	697	38	13	
5	0	0	0	0	514	491	0	664	38	13	
6	0	0	0	0	509	487	0	640	38	13	
7	0	0	0	0	502	489	0	617	38	13	
8	0	0	0	0	501	491	0	617	38	13	
9	0	0	0	0	507	491	0	647	38	13	
10	0	0	0	0	510	489	0	679	38	13	
11	0	0	0	0	512	489	0	703	38	13	
12	0	0	0	0	508	490	0	705	38	13	
13	0	0	0	0	504	490	0	711	38	13	
14	0	0	0	0	511	491	0	706	38	13	
15	0	0	0	0	508	490	0	693	38	13	
0	0	0	0	0	511	490	0	706	38	13	
1	0	0	0	0	507	489	0	726	38	13	
2	0	0	0	0	512	486	0	727	38	13	
3	0	0	0	0	512	484	0	700	38	13	
4	0	0	0	0	504	486	0	651	38	13	
5	0	0	0	0	507	489	0	611	38	13	
6	0	0	0	0	503	491	0	593	38	13	
7	0	0	0	0	514	490	0	615	38	13	
8	0	0	0	0	505	488	0	629	38	13	
9	0	0	0	0	509	489	0	574	38	13	
10	0	0	0	0	504	490	0	492	38	13	
11	0	0	0	0	513	490	0	419	38	13	
12	0	0	0	0	510	488	0	377	38	13	
13	0	0	0	0	507	487	0	384	38	13	
14	0	0	0	0	510	486	0	423	38	13	
15	0	0	0	0	510	484	0	472	38	13	
0	0	0	0	0	511	485	0	523	38	13	
1	0	0	0	0	504	487	0	591	38	13	
2	0	0	0	0	510	487	0	644	38	13	
3	0	0	0	0	511	488	0	673	38	13	
4	0	0	0	0	504	488	0	675	38	13	
5	0	0	0	0	508	487	0	650	38	13	
6	0	0	0	0	512	487	0	598	38	13	
7	0	0	0	0	509	486	0	567	38	13	
8	0	0	0	0	506	486	0	538	38	13	
9	0	0	0	0	504	487	0	552	38	13	
10	0	0	0	0	509	488	0	571	38	13	
11	0	0	0	0	516	486	0	590	38	13	
12	0	0	0	0	504	487	0	577	38	13	
13	0	0	0	0	507	485	0	588	38	13	
14	0	0	0	0	508	481	0	599	38	13	
15	0	0	0	0	511	476	0	619	38	13	
0	0	0	0	0	511	474	0	650	38	13	
1	0	0	0	0	511	472	0	694	38	13	
2	0	0	0	0	508	472	0	694	38	13	
3	0	0	0	0	508	468	0	704	38	13	
4	0	0	0	0	508	469	0	711	38	13	
5	0	0	0	0	510	470	0	741	38	13	
6	0	0	0	0	508	470	0	775	38	13	
7	0	0	0	0	505	472	0	792	38	13	
8	0	0	0	0	511	475	0	796	38	13	
9	0	0	0	0	516	476	0	786	38	13	
10	0	0	0	0	504	479	0	754	38	13	
11	0	0	0	0	508	486	0	713	38	13	
12	0	0	0	0	512	492	0	681	38	13	
13	0	0	0	0	511	497	0	665	38	13	
14	0	0	0	0	511	502	0	648	38	13	
15	0	0	0	0	505	505	0	659	38	13	
0	0	0	0	0	516	509	0	676	38	13	
1	0	0	0	0	513	515	0	713	38	13	
2	0	0	0	0	509	520	0	754	38	13	
3	0	0	0	0	502	524	0	795	38	13	
4	0	0	0	0	507	528	0	823	38	13	
5	0	0	0	0	504	533	0	813	38	13	
6	0	0	0	0	501	540	0	787	38	13	
7	0	0	0	0	506	543	0	763	38	13	
8	0	0	0	0	505	544	0	759	38	13	
9	0	0	0	0	512	545	0	779	38	13	
10	0	0	0	0	502	545	0	778	38	13	
11	0	0	0	0	510	547	0	703	38	13	
12	0	0	0	0	509	549	0	603	38	13	
13	0	0	0	0	505	549	0	509	38	13	
14	0	0	0	0	500	549	0	433	38	13	
15	0	0	0	0	515	548	0	394	38	13	
0	0	0	0	0	506	545	0	425	38	13	
1	0	0	0	0	510	533	0	502	38	13	
2	0	0	0	0	509	524	0	566	38	13	
3	0	0	0	0	516	516	0	643	38	13	
4	0	0	0	0	512	509	0	713	38	13	
5	0	0	0	0	512	504	0	741	38	13	
6	0	0	0	0	507	497	0	750	38	13	
7	0	0	0	0	511	491	0	751	38	13	
8	0	0	0	0	498	484	0	740	38	13	
9	0	0	0	0	507	477	0	734	38	13	
10	0	0	0	0	509	474	0	711	38	13	
11	0	0	0	0	508	471	0	674	38	13	
12	0	0	0	0	507	468	0	615	38	13	
13	0	0	0	0	508	466	0	557	38	13	
14	0	0	0	0	511	463	0	526	38	13	
15	0	0	0	0	511	459	0	493	38	13	
0	0	0	0	0	511	459	0	496	38	13	
1	0	0	0	0	512	457	0	502	38	13	
2	0	0	0	0	511	457	0	535	38	13	
3	0	0	0	0	507	458	0	559	38	13	
4	0	0	0	0	507	460	0	544	38	13	
5	0	0	0	0	511	464	0	515	38	13	
6	0	0	0	0	508	465	0	484	38	13	
7	0	0	0	0	509	464	0	443	38	13	
8	0	0	0	0	512	463	0	391	38	13	
9	0	0	0	0	505	465	0	353	38	13	
10	0	0	0	0	512	467	0	339	38	13	
11	0	0	0	0	516	468	0	377	38	13	
12	0	0	0	0	511	469	0	455	38	13	
13	0	0	0	0	505	471	0	505	38	13	
14	0	0	0	0	504	476	0	534	38	13	
15	0	0	0	0	502	478	0	537	38	13	
0	0	0	0	0	510	481	0	541	38	13	
1	0	0	0	0	510	484	0	555	38	13	
2	0	0	0	0	510	486	0	555	38	13	
3	0	0	0	0	507	489	0	557	38	13	
4	0	0	0	0	507	490	0	572	38	13	
5	0	0	0	0	510	492	0	608	38	13	
6	0	0	0	0	517	493	0	652	38	13	
7	0	0	0	0	517	494	0	684	38	13	
8	0	0	0	0	514	495	0	716	38	13	
9	0	0	0	0	511	497	0	748	38	13	
10	0	0	0	0	504	499	0	781	38	13	
11	0	0	0	0	510	502	0	814	38	13	
12	0	0	0	0	502	506	0	821	38	13	
13	0	0	0	0	508	508	0	821	38	13	
14	0	0	0	0	505	508	0	829	38	13	
15	0	0	0	0	504	508	0	798	38	13	
0	0	0	0	0	509	509	0	760	38	13	
1	0	0	0	0	511	513	0	724	38	13	
2	0	0	0	0	505	518	0	694	38	13	
3	0	0	0	0	515	516	0	711	38	13	
4	0	0	0	0	507	514	0	697	38	13	
5	0	0	0	0	508	515	0	660	38	13	
6	0	0	0	0	511	515	0	653	38	13	
7	0	0	0	0	510	517	0	649	38	13	
8	0	0	0	0	510	519	0	634	38	13	
9	0	0	0	0	508	521	0	611	38	13	
10	0	0	0	0	513	521	0	604	38	13	
11	0	0	0	0	515	520	0	605	38	13	
12	0	0	0	0	508	522	0	598	38	13	
13	0	0	0	0	510	524	0	614	38	13	
14	0	0	0	0	507	525	0	623	38	13	
15	0	0	0	0	500	525	0	646	38	13	
0	0	0	0	0	509	524	0	685	38	13	
1	0	0	0	0	505	524	0	729	38	13	
2	0	0	0	0	510	525	0	771	38	13	
3	0	0	0	0	508	524	0	780	38	13	
4	0	0	0	0	508	522	0	780	38	13	
5	0	0	0	0	510	520	0	778	38	13	
6	0	0	0	0	505	519	0	752	38	13	
7	0	0	0	0	504	518	0	729	38	13	
8	0	0	0	0	511	519	0	692	38	13	
9	0	0	0	0	512	520	0	647	38	13	
10	0	0	0	0	519	521	0	570	38	13	
11	0	0	0	0	710	525	0	891	38	13	
12	0	0	0	0	610	529	0	1018	38	13	
13	0	0	0	0	470	531	0	1018	38	13	
14	0	0	0	0	432	530	0	1018	38	13	
15	0	0	0	0	436	529	0	1018	38	13	
0	0	0	0	0	445	531	0	1018	38	13	
1	0	0	0	0	470	533	0	1018	38	13	
2	0	0	0	0	477	532	0	1018	38	13	
3	0	0	0	0	487	532	0	1018	38	13	
4	0	0	0	0	506	531	0	1018	38	13	
5	0	0	0	0	504	529	0	1018	38	13	
6	0	0	0	0	499	526	0	1018	38	13	
7	0	0	0	0	512	527	0	1018	38	13	
8	0	0	0	0	515	527	0	0	38	13	
9	0	0	0	0	521	528	0	0	38	13	
10	0	0	0	0	510	528	0	0	38	13	
11	0	0	0	0	511	529	0	0	38	13	
12	0	0	0	0	509	530	0	0	38	13	
13	0	0	0	0	520	531	0	0	38	13	
14	0	0	0	0	511	531	0	0	38	13	
15	0	0	0	0	514	531	0	0	38	13	
0	0	0	0	0	503	531	0	0	38	13	
1	0	0	0	0	511	529	0	0	38	13	
2	0	0	0	0	507	528	0	0	38	13	
3	0	0	0	0	511	528	0	0	38	13	
4	0	0	0	0	511	529	0	0	38	13	
5	0	0	0	0	513	530	0	0	38	13	
6	0	0	0	0	512	530	0	0	38	13	
7	0	0	0	0	512	530	0	0	38	13	
8	0	0	0	0	510	530	0	0	38	13	
9	0	0	0	0	507	531	0	0	38	13	
10	0	0	0	0	511	531	0	0	38	13	
11	0	0	0	0	513	531	0	0	38	13	
12	0	0	0	0	504	532	0	0	38	13	
13	0	0	0	0	510	532	0	0	38	13	
14	0	0	0	0	519	531	0	0	38	13	
15	0	0	0	0	512	532	0	0	38	13	
0	0	0	0	0	505	534	0	0	38	13	
1	0	0	0	0	509	535	0	0	38	13	
2	0	0	0	0	509	536	0	0	38	13	
3	0	0	0	0	509	537	0	0	38	13	
4	0	0	0	0	509	537	0	0	38	13	
5	0	0	0	0	510	537	0	0	38	13	
6	0	0	0	0	506	537	0	0	38	13	
7	0	0	0	0	510	538	0	0	38	13	
8	0	0	0	0	509	538	0	0	38	13	
9	0	0	0	0	506	539	0	0	38	13	
10	0	0	0	0	507	540	0	0	38	13	
11	0	0	0	0	506	540	0	0	38	13	
12	0	0	0	0	512	541	0	0	38	13	
13	0	0	0	0	506	542	0	0	38	13	
14	0	0	0	0	508	543	0	0	38	13	
15	0	0	0	0	503	542	0	0	38	13	
0	0	0	0	0	514	542	0	0	38	13	
1	0	0	0	0	509	543	0	0	38	13	
2	0	0	0	0	511	544	0	0	38	13	
3	0	0	0	0	508	545	0	0	38	13	
4	0	0	0	0	505	546	0	0	38	13	
5	0	0	0	0	506	547	0	0	38	13	
6	0	0	0	0	512	550	0	0	38	13	
7	0	0	0	0	514	550	0	0	38	13	
8	0	0	0	0	508	550	0	0	38	13	
9	0	0	0	0	504	551	0	0	38	13	
10	0	0	0	0	506	551	0	0	38	13	
11	0	0	0	0	510	552	0	0	38	13	
12	0	0	0	0	517	552	0	0	38	13	
13	0	0	0	0	510	552	0	0	38	13	
14	0	0	0	0	509	551	0	0	38	13	
15	0	0	0	0	508	551	0	0	38	13	
0	0	0	0	0	504	550	0	0	38	13	
1	0	0	0	0	505	549	0	0	38	13	
2	0	0	0	0	514	548	0	0	38	13	
3	0	0	0	0	512	549	0	0	38	13	
4	0	0	0	0	508	549	0	0	38	13	
5	0	0	0	0	512	547	0	0	38	13	
6	0	0	0	0	512	547	0	0	38	13	
7	0	0	0	0	503	547	0	0	38	13	
8	0	0	0	0	506	547	0	0	38	13	
9	0	0	0	0	508	546	0	0	38	13	
10	0	0	0	0	510	545	0	0	38	13	
11	0	0	0	0	506	545	0	0	38	13	
12	0	0	0	0	508	545	0	0	38	13	
13	0	0	0	0	504	547	0	0	38	13	
14	0	0	0	0	508	547	0	0	38	13	
15	0	0	0	0	511	548	0	0	38	13	
0	0	0	0	0	503	550	0	0	38	13	
1	0	0	0	0	512	549	0	0	38	13	
2	0	0	0	0	512	548	0	0	38	13	
3	0	0	0	0	510	547	0	0	38	13	
4	0	0	0	0	516	546	0	0	38	13	
5	0	0	0	0	512	545	0	0	38	13	
6	0	0	0	0	515	544	0	0	38	13	
7	0	0	0	0	504	543	0	0	38	13	
8	0	0	0	0	510	542	0	0	38	13	
9	0	0	0	0	507	540	0	0	38	13	
10	0	0	0	0	507	540	0	0	38	13	
11	0	0	0	0	513	538	0	0	38	13	
12	0	0	0	0	514	537	0	0	38	13	
13	0	0	0	0	511	536	0	0	38	13	
14	0	0	0	0	511	535	0	0	38	13	
15	0	0	0	0	517	534	0	0	38	13	
0	0	0	0	0	508	532	0	0	38	13	
1	0	0	0	0	497	532	0	0	38	13	
2	0	0	0	0	505	532	0	0	38	13	
3	0	0	0	0	507	532	0	0	38	13	
4	0	0	0	0	506	532	0	0	38	13	
5	0	0	0	0	505	532	0	0	38	13	
6	0	0	0	0	507	529	0	0	38	13	
7	0	0	0	0	506	527	0	0	38	13	
8	0	0	0	0	512	526	0	0	38	13	
9	0	0	0	0	507	525	0	0	38	13	
10	0	0	0	0	508	523	0	0	38	13	
11	0	0	0	0	510	522	0	0	38	13	
12	0	0	0	0	512	521	0	0	38	13	
13	0	0	0	0	512	521	0	0	38	13	
14	0	0	0	0	505	520	0	0	38	13	
15	0	0	0	0	508	519	0	0	38	13	
0	0	0	0	0	508	518	0	0	38	13	
1	0	0	0	0	505	517	0	0	38	13	
2	0	0	0	0	517	515	0	0	38	13	
3	0	0	0	0	509	515	0	0	38	13	
4	0	0	0	0	509	515	0	0	38	13	
5	0	0	0	0	507	513	0	0	38	13	
6	0	0	0	0	510	512	0	0	38	13	
7	0	0	0	0	512	511	0	0	38	13	
8	0	0	0	0	506	510	0	0	38	13	
9	0	0	0	0	515	509	0	0	38	13	
10	0	0	0	0	509	508	0	0	38	13	
11	0	0	0	0	516	507	0	0	38	13	
12	0	0	0	0	506	506	0	0	38	13	
13	0	0	0	0	505	505	0	0	38	13	
14	0	0	0	0	508	504	0	0	38	13	
15	0	0	0	0	499	504	0	0	38	13	
0	0	0	0	0	502	505	0	0	38	13	
1	0	0	0	0	503	505	0	0	38	13	
2	0	0	0	0	508	503	0	0	38	13	
3	0	0	0	0	510	502	0	0	38	13	
4	0	0	0	0	511	500	0	0	38	13	
5	0	0	0	0	514	499	0	0	38	13	
6	0	0	0	0	514	498	0	0	38	13	
7	0	0	0	0	510	497	0	0	38	13	
8	0	0	0	0	506	496	0	0	38	13	
9	0	0	0	0	511	495	0	0	38	13	
10	0	0	0	0	512	494	0	0	38	13	
11	0	0	0	0	510	493	0	0	38	13	
12	0	0	0	0	505	493	0	0	38	13	
13	0	0	0	0	509	493	0	0	38	13	
14	0	0	0	0	511	492	0	0	38	13	
15	0	0	0	0	506	492	0	0	38	13	
0	0	0	0	0	512	492	0	0	38	13	
1	0	0	0	0	508	493	0	0	38	13	
2	0	0	0	0	505	493	0	0	38	13	
3	0	0	0	0	513	494	0	0	38	13	
4	0	0	0	0	515	492	0	0	38	13	
5	0	0	0	0	508	493	0	0	38	13	
6	0	0	0	0	511	494	0	0	38	13	
7	0	0	0	0	509	495	0	0	38	13	
8	0	0	0	0	508	495	0	0	38	13	
9	0	0	0	0	512	495	0	0	38	13	
10	0	0	0	0	494	495	0	0	38	13	
11	0	0	0	0	505	496	0	0	38	13	
12	0	0	0	0	509	497	0	0	38	13	
13	0	0	0	0	506	497	0	0	38	13	
14	0	0	0	0	507	499	0	0	38	13	
15	0	0	0	0	511	499	0	0	38	13	
0	0	0	0	0	516	499	0	0	38	13	
1	0	0	0	0	515	500	0	0	38	13	
2	0	0	0	0	507	500	0	0	38	13	
3	0	0	0	0	512	501	0	0	38	13	
4	0	0	0	0	511	501	0	0	38	13	
5	0	0	0	0	510	500	0	0	38	13	
6	0	0	0	0	506	500	0	0	38	13	
7	0	0	0	0	511	500	0	0	38	13	
8	0	0	0	0	510	500	0	0	38	13	
9	0	0	0	0	509	499	0	0	38	13	
10	0	0	0	0	514	499	0	73	38	13	
11	0	0	0	0	506	497	0	77	38	13	
12	0	0	0	0	508	497	0	54	38	13	
13	0	0	0	0	509	498	0	65	38	13	
14	0	0	0	0	512	499	0	99	38	13	
15	0	0	0	0	512	500	0	124	38	13	
0	0	0	0	0	503	501	0	145	38	13	
1	0	0	0	0	504	503	0	150	38	13	
2	0	0	0	0	508	504	0	147	38	13	
3	0	0	0	0	507	504	0	124	38	13	
4	0	0	0	0	509	505	0	85	38	13	
5	0	0	0	0	502	507	0	16	38	13	
6	0	0	0	0	512	507	0	0	38	13	
7	0	0	0	0	512	507	0	0	38	13	
8	0	0	0	0	505	508	0	0	38	13	
9	0	0	0	0	506	508	0	0	38	13	
10	0	0	0	0	511	508	0	0	38	13	
11	0	0	0	0	513	508	0	0	38	13	
12	0	0	0	0	507	507	0	0	38	13	
13	0	0	0	0	504	507	0	0	38	13	
14	0	0	0	0	507	508	0	0	38	13	
15	0	0	0	0	505	507	0	0	38	13	
0	0	0	0	0	507	508	0	0	38	13	
1	0	0	0	0	513	507	0	0	38	13	
2	0	0	0	0	508	507	0	0	38	13	
3	0	0	0	0	512	508	0	0	38	13	
4	0	0	0	0	510	510	0	0	38	13	
5	0	0	0	0	504	511	0	0	38	13	
6	0	0	0	0	509	510	0	0	38	13	
7	0	0	0	0	515	511	0	0	38	13	
8	0	0	0	0	513	511	0	0	38	13	
9	0	0	0	0	511	512	0	0	38	13	
10	0	0	0	0	506	512	0	0	38	13	
11	0	0	0	0	514	512	0	0	38	13	
12	0	0	0	0	512	513	0	0	38	13	
13	0	0	0	0	503	513	0	0	38	13	
14	0	0	0	0	505	512	0	0	38	13	
15	0	0	0	0	504	512	0	0	38	13	
0	0	0	0	0	505	512	0	0	38	13	
1	0	0	0	0	515	512	0	76	38	13	
2	0	0	0	0	508	511	0	95	38	13	
3	0	0	0	0	510	511	0	98	38	13	
4	0	0	0	0	512	512	0	95	38	13	
5	0	0	0	0	505	512	0	67	38	13	
6	0	0	0	0	511	511	0	23	38	13	
7	0	0	0	0	515	510	0	0	38	13	
8	0	0	0	0	503	509	0	0	38	13	
9	0	0	0	0	513	508	0	0	38	13	
10	0	0	0	0	511	506	0	0	38	13	
11	0	0	0	0	506	505	0	0	38	13	
12	0	0	0	0	506	504	0	0	38	13	
13	0	0	0	0	508	503	0	0	38	13	
14	0	0	0	0	503	503	0	0	38	13	
15	0	0	0	0	508	503	0	0	38	13	
0	0	0	0	0	507	502	0	90	38	13	
1	0	0	0	0	503	501	0	146	38	13	
2	0	0	0	0	512	501	0	194	38	13	
3	0	0	0	0	513	502	0	203	38	13	
4	0	0	0	0	509	502	0	213	38	13	
5	0	0	0	0	512	502	0	185	38	13	
6	0	0	0	0	505	501	0	125	38	13	
7	0	0	0	0	505	499	0	89	38	13	
8	0	0	0	0	504	499	0	58	38	13	
9	0	0	0	0	515	498	0	31	38	13	
10	0	0	0	0	508	498	0	23	38	13	
11	0	0	0	0	506	497	0	6	38	13	
12	0	0	0	0	507	497	0	0	38	13	
13	0	0	0	0	503	496	0	0	38	13	
14	0	0	0	0	509	496	0	0	38	13	
15	0	0	0	0	510	496	0	0	38	13	
0	0	0	0	0	509	495	0	0	38	13	
1	0	0	0	0	510	495	0	0	38	13	
2	0	0	0	0	510	494	0	0	38	13	
3	0	0	0	0	511	494	0	0	38	13	
4	0	0	0	0	506	493	0	0	38	13	
5	0	0	0	0	516	492	0	37	38	13	
6	0	0	0	0	496	492	0	94	38	13	
7	0	0	0	0	508	492	0	176	38	13	
8	0	0	0	0	511	490	0	268	38	13	
9	0	0	0	0	513	488	0	341	38	13	
10	0	0	0	0	508	489	0	391	38	13	
11	0	0	0	0	504	489	0	387	38	13	
12	0	0	0	0	513	489	0	350	38	13	
13	0	0	0	0	507	488	0	338	38	13	
14	0	0	0	0	512	488	0	333	38	13	
15	0	0	0	0	508	488	0	282	38	13	
0	0	0	0	0	514	487	0	231	38	13	
1	0	0	0	0	512	487	0	204	38	13	
2	0	0	0	0	511	488	0	186	38	13	
3	0	0	0	0	506	489	0	184	38	13	
4	0	0	0	0	501	490	0	181	38	13	
5	0	0	0	0	507	491	0	190	38	13	
6	0	0	0	0	506	490	0	179	38	13	
7	0	0	0	0	508	490	0	192	38	13	
8	0	0	0	0	502	491	0	224	38	13	
9	0	0	0	0	514	491	0	243	38	13	
10	0	0	0	0	507	492	0	264	38	13	
11	0	0	0	0	504	493	0	280	38	13	
12	0	0	0	0	508	494	0	313	38	13	
13	0	0	0	0	507	495	0	344	38	13	
14	0	0	0	0	515	495	0	350	38	13	
15	0	0	0	0	497	494	0	339	38	13	
0	0	0	0	0	506	493	0	316	38	13	
1	0	0	0	0	504	489	0	314	38	13	
2	0	0	0	0	508	487	0	283	38	13	
3	0	0	0	0	512	484	0	263	38	13	
4	0	0	0	0	511	480	0	271	38	13	
5	0	0	0	0	516	477	0	283	38	13	
6	0	0	0	0	504	476	0	289	38	13	
7	0	0	0	0	504	475	0	297	38	13	
8	0	0	0	0	505	474	0	316	38	13	
9	0	0	0	0	503	473	0	323	38	13	
10	0	0	0	0	510	473	0	301	38	13	
11	0	0	0	0	508	475	0	288	38	13	
12	0	0	0	0	511	477	0	298	38	13	
13	0	0	0	0	513	480	0	294	38	13	
14	0	0	0	0	509	481	0	255	38	13	
15	0	0	0	0	508	484	0	242	38	13	
0	0	0	0	0	507	487	0	231	38	13	
1	0	0	0	0	508	490	0	246	38	13	
2	0	0	0	0	504	494	0	256	38	13	
3	0	0	0	0	502	497	0	267	38	13	
4	0	0	0	0	513	502	0	268	38	13	
5	0	0	0	0	507	507	0	275	38	13	
6	0	0	0	0	505	514	0	272	38	13	
7	0	0	0	0	509	519	0	279	38	13	
8	0	0	0	0	511	527	0	263	38	13	
9	0	0	0	0	516	532	0	241	38	13	
10	0	0	0	0	520	537	0	284	38	13	
11	0	0	0	0	510	543	0	335	38	13	
12	0	0	0	0	504	546	0	389	38	13	
13	0	0	0	0	508	550	0	425	38	13	
14	0	0	0	0	507	552	0	449	38	13	
15	0	0	0	0	510	556	0	480	38	13	
0	0	0	0	0	508	559	0	495	38	13	
1	0	0	0	0	511	561	0	496	38	13	
2	0	0	0	0	507	563	0	471	38	13	
3	0	0	0	0	513	562	0	423	38	13	
4	0	0	0	0	502	560	0	406	38	13	
5	0	0	0	0	508	553	0	419	38	13	
6	0	0	0	0	507	544	0	400	38	13	
7	0	0	0	0	513	535	0	376	38	13	
8	0	0	0	0	505	524	0	358	38	13	
9	0	0	0	0	514	515	0	387	38	13	
10	0	0	0	0	513	506	0	416	38	13	
11	0	0	0	0	517	497	0	454	38	13	
12	0	0	0	0	508	490	0	477	38	13	
13	0	0	0	0	510	483	0	460	38	13	
14	0	0	0	0	505	478	0	424	38	13	
15	0	0	0	0	504	472	0	407	38	13	
0	0	0	0	0	511	469	0	397	38	13	
1	0	0	0	0	513	466	0	404	38	13	
2	0	0	0	0	507	463	0	436	38	13	
3	0	0	0	0	507	461	0	487	38	13	
4	0	0	0	0	505	459	0	523	38	13	
5	0	0	0	0	511	459	0	513	38	13	
6	0	0	0	0	508	459	0	513	38	13	
7	0	0	0	0	513	459	0	521	38	13	
8	0	0	0	0	507	459	0	496	38	13	
9	0	0	0	0	505	459	0	467	38	13	
10	0	0	0	0	505	458	0	470	38	13	
11	0	0	0	0	509	459	0	497	38	13	
12	0	0	0	0	504	462	0	510	38	13	
13	0	0	0	0	510	465	0	518	38	13	
14	0	0	0	0	515	467	0	543	38	13	
15	0	0	0	0	515	470	0	547	38	13	
0	0	0	0	0	507	472	0	537	38	13	
1	0	0	0	0	508	474	0	527	38	13	
2	0	0	0	0	504	477	0	552	38	13	
3	0	0	0	0	511	479	0	563	38	13	
4	0	0	0	0	512	481	0	515	38	13	
5	0	0	0	0	504	484	0	434	38	13	
6	0	0	0	0	502	488	0	386	38	13	
7	0	0	0	0	504	490	0	407	38	13	
8	0	0	0	0	510	492	0	421	38	13	
9	0	0	0	0	514	493	0	458	38	13	
10	0	0	0	0	510	495	0	474	38	13	
11	0	0	0	0	508	497	0	457	38	13	
12	0	0	0	0	510	500	0	469	38	13	
13	0	0	0	0	509	502	0	470	38	13	
14	0	0	0	0	504	505	0	453	38	13	
15	0	0	0	0	512	509	0	457	38	13	
0	0	0	0	0	508	512	0	451	38	13	
1	0	0	0	0	507	515	0	457	38	13	
2	0	0	0	0	510	515	0	490	38	13	
3	0	0	0	0	515	515	0	495	38	13	
4	0	0	0	0	503	516	0	500	38	13	
5	0	0	0	0	512	517	0	484	38	13	
6	0	0	0	0	510	517	0	493	38	13	
7	0	0	0	0	515	516	0	487	38	13	
8	0	0	0	0	508	517	0	440	38	13	
9	0	0	0	0	510	518	0	438	38	13	
10	0	0	0	0	505	518	0	477	38	13	
11	0	0	0	0	507	518	0	528	38	13	
12	0	0	0	0	506	518	0	551	38	13	
13	0	0	0	0	506	518	0	518	38	13	
14	0	0	0	0	508	519	0	476	38	13	
15	0	0	0	0	507	521	0	455	38	13	
0	0	0	0	0	512	522	0	447	38	13	
1	0	0	0	0	508	522	0	455	38	13	
2	0	0	0	0	504	522	0	444	38	13	
3	0	0	0	0	519	523	0	445	38	13	
4	0	0	0	0	515	523	0	450	38	13	
5	0	0	0	0	507	523	0	463	38	13	
6	0	0	0	0	508	523	0	512	38	13	
7	0	0	0	0	504	523	0	540	38	13	
8	0	0	0	0	509	522	0	523	38	13	
9	0	0	0	0	514	521	0	490	38	13	
10	0	0	0	0	499	523	0	470	38	13	
11	0	0	0	0	509	525	0	441	38	13	
12	0	0	0	0	509	527	0	425	38	13	
13	0	0	0	0	512	528	0	419	38	13	
14	0	0	0	0	510	528	0	428	38	13	
15	0	0	0	0	511	529	0	456	38	13	
0	0	0	0	0	511	527	0	472	38	13	
1	0	0	0	0	512	528	0	463	38	13	
2	0	0	0	0	507	527	0	454	38	13	
3	0	0	0	0	507	527	0	436	38	13	
4	0	0	0	0	511	526	0	461	38	13	
5	0	0	0	0	503	526	0	499	38	13	
6	0	0	0	0	511	525	0	524	38	13	
7	0	0	0	0	511	525	0	555	38	13	
8	0	0	0	0	504	523	0	565	38	13	
9	0	0	0	0	512	523	0	613	38	13	
10	0	0	0	0	504	524	0	661	38	13	
11	0	0	0	0	507	525	0	655	38	13	
12	0	0	0	0	509	527	0	633	38	13	
13	0	0	0	0	512	528	0	602	38	13	
14	0	0	0	0	512	529	0	579	38	13	
15	0	0	0	0	511	531	0	573	38	13	
0	0	0	0	0	513	532	0	559	38	13	
1	0	0	0	0	514	532	0	559	38	13	
2	0	0	0	0	506	533	0	564	38	13	
3	0	0	0	0	507	533	0	574	38	13	
4	0	0	0	0	510	534	0	545	38	13	
5	0	0	0	0	516	534	0	504	38	13	
6	0	0	0	0	502	535	0	500	38	13	
7	0	0	0	0	503	536	0	492	38	13	
8	0	0	0	0	506	538	0	481	38	13	
9	0	0	0	0	510	540	0	494	38	13	
10	0	0	0	0	513	541	0	498	38	13	
11	0	0	0	0	510	541	0	532	38	13	
12	0	0	0	0	511	539	0	568	38	13	
13	0	0	0	0	510	538	0	581	38	13	
14	0	0	0	0	506	538	0	612	38	13	
15	0	0	0	0	504	538	0	587	38	13	
0	0	0	0	0	513	538	0	536	38	13	
1	0	0	0	0	512	538	0	459	38	13	
2	0	0	0	0	516	540	0	406	38	13	
3	0	0	0	0	512	540	0	386	38	13	
4	0	0	0	0	502	540	0	403	38	13	
5	0	0	0	0	507	540	0	418	38	13	
6	0	0	0	0	496	540	0	426	38	13	
7	0	0	0	0	507	540	0	431	38	13	
8	0	0	0	0	510	541	0	421	38	13	
9	0	0	0	0	508	540	0	414	38	13	
10	0	0	0	0	511	540	0	419	38	13	
11	0	0	0	0	515	542	0	404	38	13	
12	0	0	0	0	506	543	0	363	38	13	
13	0	0	0	0	509	543	0	327	38	13	
14	0	0	0	0	512	544	0	295	38	13	
15	0	0	0	0	503	543	0	310	38	13	
0	0	0	0	0	503	543	0	346	38	13	
1	0	0	0	0	509	543	0	384	38	13	
2	0	0	0	0	512	543	0	444	38	13	
3	0	0	0	0	509	544	0	480	38	13	
4	0	0	0	0	511	545	0	508	38	13	
5	0	0	0	0	514	546	0	539	38	13	
6	0	0	0	0	509	548	0	582	38	13	
7	0	0	0	0	509	550	0	627	38	13	
8	0	0	0	0	512	551	0	632	38	13	
9	0	0	0	0	511	551	0	600	38	13	
10	0	0	0	0	509	551	0	560	38	13	
11	0	0	0	0	508	551	0	563	38	13	
12	0	0	0	0	504	551	0	573	38	13	
13	0	0	0	0	507	551	0	571	38	13	
14	0	0	0	0	504	552	0	555	38	13	
15	0	0	0	0	510	553	0	538	38	13	
0	0	0	0	0	511	555	0	540	38	13	
1	0	0	0	0	506	557	0	543	38	13	
2	0	0	0	0	510	558	0	564	38	13	
3	0	0	0	0	507	558	0	563	38	13	
4	0	0	0	0	513	558	0	543	38	13	
5	0	0	0	0	508	560	0	520	38	13	
6	0	0	0	0	506	560	0	499	38	13	
7	0	0	0	0	506	560	0	452	38	13	
8	0	0	0	0	508	559	0	427	38	13	
9	0	0	0	0	511	558	0	414	38	13	
10	0	0	0	0	509	559	0	412	38	13	
11	0	0	0	0	511	559	0	430	38	13	
12	0	0	0	0	510	558	0	451	38	13	
13	0	0	0	0	510	558	0	468	38	13	
14	0	0	0	0	503	556	0	455	38	13	
15	0	0	0	0	504	555	0	447	38	13	
0	0	0	0	0	513	553	0	450	38	13	
1	0	0	0	0	509	551	0	459	38	13	
2	0	0	0	0	515	552	0	464	38	13	
3	0	0	0	0	507	553	0	440	38	13	
4	0	0	0	0	507	552	0	440	38	13	
5	0	0	0	0	509	551	0	433	38	13	
6	0	0	0	0	507	552	0	413	38	13	
7	0	0	0	0	508	551	0	390	38	13	
8	0	0	0	0	511	551	0	370	38	13	
9	0	0	0	0	510	551	0	351	38	13	
10	0	0	0	0	508	548	0	287	38	13	
11	0	0	0	0	509	548	0	237	38	13	
12	0	0	0	0	511	548	0	185	38	13	
13	0	0	0	0	505	550	0	143	38	13	
14	0	0	0	0	508	550	0	136	38	13	
15	0	0	0	0	508	549	0	200	38	13	
0	0	0	0	0	505	548	0	278	38	13	
1	0	0	0	0	509	547	0	343	38	13	
2	0	0	0	0	509	545	0	400	38	13	
3	0	0	0	0	503	544	0	472	38	13	
4	0	0	0	0	510	542	0	548	38	13	
5	0	0	0	0	507	542	0	605	38	13	
6	0	0	0	0	512	540	0	656	38	13	
7	0	0	0	0	504	540	0	682	38	13	
8	0	0	0	0	504	538	0	707	38	13	
9	0	0	0	0	511	536	0	732	38	13	
10	0	0	0	0	518	534	0	740	38	13	
11	0	0	0	0	508	533	0	717	38	13	
12	0	0	0	0	508	533	0	687	38	13	
13	0	0	0	0	507	531	0	665	38	13	
14	0	0	0	0	511	529	0	621	38	13	
15	0	0	0	0	505	528	0	558	38	13	
0	0	0	0	0	509	527	0	508	38	13	
1	0	0	0	0	505	527	0	450	38	13	
2	0	0	0	0	508	524	0	420	38	13	
3	0	0	0	0	512	522	0	431	38	13	
4	0	0	0	0	510	522	0	422	38	13	
5	0	0	0	0	507	521	0	420	38	13	
6	0	0	0	0	512	520	0	448	38	13	
7	0	0	0	0	507	519	0	506	38	13	
8	0	0	0	0	512	517	0	582	38	13	
9	0	0	0	0	512	514	0	627	38	13	
10	0	0	0	0	510	512	0	662	38	13	
11	0	0	0	0	509	510	0	657	38	13	
12	0	0	0	0	514	508	0	627	38	13	
13	0	0	0	0	503	506	0	591	38	13	
14	0	0	0	0	507	506	0	568	38	13	
15	0	0	0	0	511	505	0	524	38	13	
0	0	0	0	0	510	505	0	476	38	13	
1	0	0	0	0	502	504	0	441	38	13	
2	0	0	0	0	511	505	0	412	38	13	
3	0	0	0	0	512	506	0	383	38	13	
4	0	0	0	0	511	507	0	382	38	13	
5	0	0	0	0	512	506	0	381	38	13	
6	0	0	0	0	508	503	0	393	38	13	
7	0	0	0	0	504	500	0	409	38	13	
8	0	0	0	0	512	500	0	440	38	13	
9	0	0	0	0	512	499	0	470	38	13	
10	0	0	0	0	507	499	0	499	38	13	
11	0	0	0	0	505	498	0	515	38	13	
12	0	0	0	0	513	498	0	508	38	13	
13	0	0	0	0	512	497	0	512	38	13	
14	0	0	0	0	503	496	0	531	38	13	
15	0	0	0	0	510	496	0	548	38	13	
0	0	0	0	0	512	496	0	530	38	13	
1	0	0	0	0	506	498	0	487	38	13	
2	0	0	0	0	505	497	0	445	38	13	
3	0	0	0	0	503	498	0	429	38	13	
4	0	0	0	0	509	499	0	405	38	13	
5	0	0	0	0	508	499	0	397	38	13	
6	0	0	0	0	506	500	0	424	38	13	
7	0	0	0	0	507	500	0	455	38	13	
8	0	0	0	0	505	499	0	482	38	13	
9	0	0	0	0	511	499	0	509	38	13	
10	0	0	0	0	509	500	0	545	38	13	
11	0	0	0	0	511	500	0	575	38	13	
12	0	0	0	0	511	499	0	577	38	13	
13	0	0	0	0	507	500	0	566	38	13	
14	0	0	0	0	512	500	0	561	38	13	
15	0	0	0	0	510	502	0	563	38	13	
0	0	0	0	0	508	502	0	551	38	13	
1	0	0	0	0	513	502	0	543	38	13	
2	0	0	0	0	510	503	0	521	38	13	
3	0	0	0	0	508	504	0	513	38	13	
4	0	0	0	0	508	504	0	547	38	13	
5	0	0	0	0	513	503	0	593	38	13	
6	0	0	0	0	508	504	0	605	38	13	
7	0	0	0	0	510	505	0	611	38	13	
8	0	0	0	0	506	504	0	582	38	13	
9	0	0	0	0	509	505	0	551	38	13	
10	0	0	0	0	512	506	0	529	38	13	
11	0	0	0	0	505	506	0	509	38	13	
12	0	0	0	0	508	506	0	528	38	13	
13	0	0	0	0	503	507	0	550	38	13	
14	0	0	0	0	514	507	0	552	38	13	
15	0	0	0	0	507	506	0	540	38	13	
0	0	0	0	0	515	506	0	539	38	13	
1	0	0	0	0	514	508	0	530	38	13	
2	0	0	0	0	507	510	0	496	38	13	
3	0	0	0	0	507	512	0	505	38	13	
4	0	0	0	0	514	513	0	545	38	13	
5	0	0	0	0	515	514	0	575	38	13	
6	0	0	0	0	505	513	0	622	38	13	
7	0	0	0	0	503	515	0	673	38	13	
8	0	0	0	0	505	516	0	711	38	13	
9	0	0	0	0	512	516	0	723	38	13	
10	0	0	0	0	509	516	0	693	38	13	
11	0	0	0	0	503	516	0	652	38	13	
12	0	0	0	0	510	515	0	618	38	13	
13	0	0	0	0	507	515	0	610	38	13	
14	0	0	0	0	510	516	0	610	38	13	
15	0	0	0	0	521	516	0	623	38	13	
0	0	0	0	0	511	517	0	653	38	13	
1	0	0	0	0	513	517	0	676	38	13	
2	0	0	0	0	502	516	0	699	38	13	
3	0	0	0	0	509	515	0	718	38	13	
4	0	0	0	0	504	518	0	704	38	13	
5	0	0	0	0	502	518	0	679	38	13	
6	0	0	0	0	515	519	0	662	38	13	
7	0	0	0	0	498	518	0	670	38	13	
8	0	0	0	0	511	516	0	670	38	13	
9	0	0	0	0	511	516	0	656	38	13	
10	0	0	0	0	509	515	0	615	38	13	
11	0	0	0	0	513	513	0	580	38	13	
12	0	0	0	0	519	513	0	543	38	13	
13	0	0	0	0	510	512	0	536	38	13	
14	0	0	0	0	503	511	0	577	38	13	
15	0	0	0	0	503	509	0	602	38	13	
0	0	0	0	0	510	510	0	611	38	13	
1	0	0	0	0	513	509	0	647	38	13	
2	0	0	0	0	508	508	0	683	38	13	
3	0	0	0	0	508	508	0	690	38	13	
4	0	0	0	0	508	508	0	694	38	13	
5	0	0	0	0	500	509	0	701	38	13	
6	0	0	0	0	512	508	0	703	38	13	
7	0	0	0	0	507	508	0	691	38	13	
8	0	0	0	0	506	507	0	646	38	13	
9	0	0	0	0	510	507	0	619	38	13	
10	0	0	0	0	510	507	0	579	38	13	
11	0	0	0	0	512	506	0	569	38	13	
12	0	0	0	0	508	504	0	578	38	13	
13	0	0	0	0	500	503	0	605	38	13	
14	0	0	0	0	511	503	0	620	38	13	
15	0	0	0	0	505	502	0	632	38	13	
0	0	0	0	0	506	503	0	656	38	13	
1	0	0	0	0	510	504	0	661	38	13	
2	0	0	0	0	513	505	0	627	38	13	
3	0	0	0	0	513	505	0	599	38	13	
4	0	0	0	0	516	506	0	547	38	13	
5	0	0	0	0	511	506	0	498	38	13	
6	0	0	0	0	507	507	0	489	38	13	
7	0	0	0	0	509	507	0	486	38	13	
8	0	0	0	0	503	504	0	474	38	13	
9	0	0	0	0	511	502	0	460	38	13	
10	0	0	0	0	515	501	0	484	38	13	
11	0	0	0	0	513	499	0	510	38	13	
12	0	0	0	0	512	499	0	513	38	13	
13	0	0	0	0	506	498	0	481	38	13	
14	0	0	0	0	509	497	0	455	38	13	
15	0	0	0	0	512	496	0	425	38	13	
0	0	0	0	0	508	496	0	357	38	13	
1	0	0	0	0	505	495	0	305	38	13	
2	0	0	0	0	503	493	0	286	38	13	
3	0	0	0	0	507	494	0	279	38	13	
4	0	0	0	0	506	493	0	298	38	13	
5	0	0	0	0	502	492	0	331	38	13	
6	0	0	0	0	508	492	0	318	38	13	
7	0	0	0	0	512	492	0	323	38	13	
8	0	0	0	0	509	492	0	331	38	13	
9	0	0	0	0	510	492	0	361	38	13	
10	0	0	0	0	504	493	0	372	38	13	
11	0	0	0	0	514	493	0	419	38	13	
12	0	0	0	0	508	495	0	457	38	13	
13	0	0	0	0	511	495	0	468	38	13	
14	0	0	0	0	511	494	0	480	38	13	
15	0	0	0	0	515	493	0	481	38	13	
0	0	0	0	0	510	493	0	440	38	13	
1	0	0	0	0	507	492	0	419	38	13	
2	0	0	0	0	512	493	0	364	38	13	
3	0	0	0	0	503	494	0	332	38	13	
4	0	0	0	0	508	494	0	349	38	13	
5	0	0	0	0	516	493	0	355	38	13	
6	0	0	0	0	506	492	0	336	38	13	
7	0	0	0	0	507	493	0	323	38	13	
8	0	0	0	0	512	492	0	361	38	13	
9	0	0	0	0	513	489	0	399	38	13	
10	0	0	0	0	511	489	0	422	38	13	
11	0	0	0	0	509	489	0	420	38	13	
12	0	0	0	0	507	489	0	401	38	13	
13	0	0	0	0	507	489	0	427	38	13	
14	0	0	0	0	503	489	0	464	38	13	
15	0	0	0	0	506	489	0	470	38	13	
0	0	0	0	0	511	489	0	487	38	13	
1	0	0	0	0	504	488	0	493	38	13	
2	0	0	0	0	511	487	0	486	38	13	
3	0	0	0	0	499	486	0	493	38	13	
4	0	0	0	0	505	485	0	465	38	13	
5	0	0	0	0	508	481	0	447	38	13	
6	0	0	0	0	512	477	0	422	38	13	
7	0	0	0	0	505	473	0	401	38	13	
8	0	0	0	0	510	469	0	377	38	13	
9	0	0	0	0	513	465	0	387	38	13	
10	0	0	0	0	509	462	0	415	38	13	
11	0	0	0	0	514	461	0	443	38	13	
12	0	0	0	0	510	460	0	477	38	13	
13	0	0	0	0	509	457	0	521	38	13	
14	0	0	0	0	507	459	0	552	38	13	
15	0	0	0	0	512	459	0	564	38	13	
0	0	0	0	0	502	462	0	556	38	13	
1	0	0	0	0	506	464	0	553	38	13	
2	0	0	0	0	507	470	0	523	38	13	
3	0	0	0	0	514	473	0	504	38	13	
4	0	0	0	0	514	478	0	524	38	13	
5	0	0	0	0	512	484	0	525	38	13	
6	0	0	0	0	507	491	0	546	38	13	
7	0	0	0	0	509	497	0	555	38	13	
8	0	0	0	0	504	504	0	509	38	13	
9	0	0	0	0	506	510	0	471	38	13	
10	0	0	0	0	512	519	0	472	38	13	
11	0	0	0	0	509	527	0	510	38	13	
12	0	0	0	0	503	535	0	536	38	13	
13	0	0	0	0	506	543	0	563	38	13	
14	0	0	0	0	507	550	0	604	38	13	
15	0	0	0	0	511	556	0	637	38	13	
0	0	0	0	0	503	561	0	649	38	13	
1	0	0	0	0	511	567	0	644	38	13	
2	0	0	0	0	508	573	0	617	38	13	
3	0	0	0	0	509	578	0	592	38	13	
4	0	0	0	0	503	583	0	553	38	13	
5	0	0	0	0	508	588	0	527	38	13	
6	0	0	0	0	516	591	0	518	38	13	
7	0	0	0	0	502	591	0	530	38	13	
8	0	0	0	0	510	588	0	565	38	13	
9	0	0	0	0	509	581	0	596	38	13	
10	0	0	0	0	509	572	0	627	38	13	
11	0	0	0	0	509	562	0	641	38	13	
12	0	0	0	0	505	550	0	638	38	13	
13	0	0	0	0	507	537	0	635	38	13	
14	0	0	0	0	511	525	0	654	38	13	
15	0	0	0	0	514	514	0	666	38	13	
0	0	0	0	0	510	503	0	682	38	13	
1	0	0	0	0	505	494	0	670	38	13	
2	0	0	0	0	508	486	0	670	38	13	
3	0	0	0	0	515	479	0	663	38	13	
4	0	0	0	0	506	473	0	665	38	13	
5	0	0	0	0	507	468	0	662	38	13	
6	0	0	0	0	510	461	0	638	38	13	
7	0	0	0	0	508	456	0	635	38	13	
8	0	0	0	0	508	453	0	636	38	13	
9	0	0	0	0	505	450	0	667	38	13	
10	0	0	0	0	510	448	0	702	38	13	
11	0	0	0	0	512	447	0	692	38	13	
12	0	0	0	0	514	445	0	677	38	13	
13	0	0	0	0	503	444	0	652	38	13	
14	0	0	0	0	511	444	0	618	38	13	
15	0	0	0	0	511	445	0	610	38	13	
0	0	0	0	0	514	445	0	619	38	13	
1	0	0	0	0	510	446	0	632	38	13	
2	0	0	0	0	505	447	0	644	38	13	
3	0	0	0	0	505	448	0	644	38	13	
4	0	0	0	0	514	451	0	613	38	13	
5	0	0	0	0	511	454	0	603	38	13	
6	0	0	0	0	503	457	0	621	38	13	
7	0	0	0	0	515	461	0	659	38	13	
8	0	0	0	0	508	464	0	675	38	13	
9	0	0	0	0	512	469	0	647	38	13	
10	0	0	0	0	508	472	0	614	38	13	
11	0	0	0	0	507	475	0	582	38	13	
12	0	0	0	0	511	479	0	565	38	13	
13	0	0	0	0	502	482	0	568	38	13	
14	0	0	0	0	506	486	0	591	38	13	
15	0	0	0	0	510	490	0	587	38	13	
0	0	0	0	0	507	493	0	524	38	13	
1	0	0	0	0	512	496	0	432	38	13	
2	0	0	0	0	508	499	0	359	38	13	
3	0	0	0	0	510	500	0	264	38	13	
4	0	0	0	0	504	503	0	235	38	13	
5	0	0	0	0	506	505	0	250	38	13	
6	0	0	0	0	508	507	0	247	38	13	
7	0	0	0	0	504	509	0	297	38	13	
8	0	0	0	0	507	512	0	381	38	13	
9	0	0	0	0	514	513	0	448	38	13	
10	0	0	0	0	503	513	0	504	38	13	
11	0	0	0	0	500	513	0	522	38	13	
12	0	0	0	0	506	513	0	486	38	13	
13	0	0	0	0	514	514	0	499	38	13	
14	0	0	0	0	506	515	0	525	38	13	
15	0	0	0	0	512	515	0	538	38	13	
0	0	0	0	0	509	515	0	544	38	13	
1	0	0	0	0	509	516	0	539	38	13	
2	0	0	0	0	517	518	0	506	38	13	
3	0	0	0	0	512	519	0	480	38	13	
4	0	0	0	0	504	519	0	467	38	13	
5	0	0	0	0	512	519	0	463	38	13	
6	0	0	0	0	510	519	0	467	38	13	
7	0	0	0	0	508	519	0	453	38	13	
8	0	0	0	0	505	519	0	427	38	13	
9	0	0	0	0	510	519	0	394	38	13	
10	0	0	0	0	512	518	0	388	38	13	
11	0	0	0	0	514	518	0	421	38	13	
12	0	0	0	0	506	519	0	442	38	13	
13	0	0	0	0	505	519	0	460	38	13	
14	0	0	0	0	507	521	0	476	38	13	
15	0	0	0	0	507	522	0	478	38	13	
0	0	0	0	0	513	522	0	494	38	13	
1	0	0	0	0	515	523	0	505	38	13	
2	0	0	0	0	506	522	0	485	38	13	
3	0	0	0	0	505	522	0	433	38	13	
4	0	0	0	0	504	522	0	415	38	13	
5	0	0	0	0	505	523	0	417	38	13	
6	0	0	0	0	513	524	0	400	38	13	
7	0	0	0	0	518	524	0	376	38	13	
8	0	0	0	0	508	522	0	363	38	13	
9	0	0	0	0	508	521	0	383	38	13	
10	0	0	0	0	506	522	0	440	38	13	
11	0	0	0	0	504	521	0	473	38	13	
12	0	0	0	0	513	522	0	486	38	13	
13	0	0	0	0	508	523	0	493	38	13	
14	0	0	0	0	512	524	0	523	38	13	
15	0	0	0	0	511	525	0	578	38	13	
0	0	0	0	0	503	525	0	628	38	13	
1	0	0	0	0	515	526	0	649	38	13	
2	0	0	0	0	507	528	0	637	38	13	
3	0	0	0	0	503	529	0	630	38	13	
4	0	0	0	0	506	530	0	651	38	13	
5	0	0	0	0	502	529	0	659	38	13	
6	0	0	0	0	508	530	0	657	38	13	
7	0	0	0	0	509	531	0	647	38	13	
8	0	0	0	0	501	530	0	628	38	13	
9	0	0	0	0	505	529	0	614	38	13	
10	0	0	0	0	509	528	0	618	38	13	
11	0	0	0	0	513	529	0	623	38	13	
12	0	0	0	0	518	530	0	628	38	13	
13	0	0	0	0	512	530	0	626	38	13	
14	0	0	0	0	507	531	0	641	38	13	
15	0	0	0	0	508	531	0	644	38	13	
0	0	0	0	0	505	531	0	654	38	13	
1	0	0	0	0	508	533	0	662	38	13	
2	0	0	0	0	510	534	0	659	38	13	
3	0	0	0	0	513	535	0	655	38	13	
4	0	0	0	0	515	536	0	625	38	13	
5	0	0	0	0	506	538	0	581	38	13	
6	0	0	0	0	500	538	0	538	38	13	
7	0	0	0	0	503	540	0	492	38	13	
8	0	0	0	0	518	541	0	480	38	13	
9	0	0	0	0	504	542	0	499	38	13	
10	0	0	0	0	506	542	0	486	38	13	
11	0	0	0	0	511	543	0	448	38	13	
12	0	0	0	0	507	544	0	430	38	13	
13	0	0	0	0	510	547	0	432	38	13	
14	0	0	0	0	510	548	0	428	38	13	
15	0	0	0	0	505	551	0	424	38	13	
0	0	0	0	0	512	552	0	429	38	13	
1	0	0	0	0	505	552	0	423	38	13	
2	0	0	0	0	507	552	0	444	38	13	
3	0	0	0	0	519	552	0	472	38	13	
4	0	0	0	0	505	553	0	474	38	13	
5	0	0	0	0	511	555	0	496	38	13	
6	0	0	0	0	505	557	0	522	38	13	
7	0	0	0	0	509	558	0	561	38	13	
8	0	0	0	0	512	558	0	565	38	13	
9	0	0	0	0	510	558	0	523	38	13	
10	0	0	0	0	506	559	0	505	38	13	
11	0	0	0	0	511	561	0	500	38	13	
12	0	0	0	0	509	561	0	496	38	13	
13	0	0	0	0	507	562	0	530	38	13	
14	0	0	0	0	502	562	0	560	38	13	
15	0	0	0	0	513	561	0	559	38	13	
0	0	0	0	0	508	562	0	515	38	13	
1	0	0	0	0	512	564	0	527	38	13	
2	0	0	0	0	510	565	0	562	38	13	
3	0	0	0	0	509	565	0	573	38	13	
4	0	0	0	0	504	564	0	553	38	13	
5	0	0	0	0	509	564	0	509	38	13	
6	0	0	0	0	502	564	0	430	38	13	
7	0	0	0	0	507	563	0	374	38	13	
8	0	0	0	0	510	563	0	344	38	13	
9	0	0	0	0	507	562	0	360	38	13	
10	0	0	0	0	508	562	0	369	38	13	
11	0	0	0	0	512	561	0	378	38	13	
12	0	0	0	0	514	560	0	407	38	13	
13	0	0	0	0	511	560	0	411	38	13	
14	0	0	0	0	504	560	0	415	38	13	
15	0	0	0	0	507	560	0	413	38	13	
0	0	0	0	0	517	560	0	443	38	13	
1	0	0	0	0	511	560	0	477	38	13	
2	0	0	0	0	513	560	0	493	38	13	
3	0	0	0	0	513	560	0	499	38	13	
4	0	0	0	0	505	561	0	495	38	13	
5	0	0	0	0	509	560	0	456	38	13	
6	0	0	0	0	507	560	0	425	38	13	
7	0	0	0	0	506	559	0	403	38	13	
8	0	0	0	0	505	558	0	415	38	13	
9	0	0	0	0	505	556	0	432	38	13	
10	0	0	0	0	517	555	0	414	38	13	
11	0	0	0	0	512	555	0	337	38	13	
12	0	0	0	0	510	553	0	270	38	13	
13	0	0	0	0	503	553	0	250	38	13	
14	0	0	0	0	511	552	0	275	38	13	
15	0	0	0	0	505	551	0	347	38	13	
0	0	0	0	0	501	550	0	422	38	13	
1	0	0	0	0	506	549	0	464	38	13	
2	0	0	0	0	515	547	0	453	38	13	
3	0	0	0	0	508	545	0	422	38	13	
4	0	0	0	0	512	544	0	394	38	13	
5	0	0	0	0	505	543	0	365	38	13	
6	0	0	0	0	501	541	0	359	38	13	
7	0	0	0	0	505	538	0	364	38	13	
8	0	0	0	0	511	536	0	383	38	13	
9	0	0	0	0	509	534	0	427	38	13	
10	0	0	0	0	508	532	0	477	38	13	
11	0	0	0	0	508	530	0	499	38	13	
12	0	0	0	0	515	528	0	543	38	13	
13	0	0	0	0	509	527	0	569	38	13	
14	0	0	0	0	512	527	0	591	38	13	
15	0	0	0	0	513	526	0	605	38	13	
0	0	0	0	0	504	524	0	591	38	13	
1	0	0	0	0	509	521	0	543	38	13	
2	0	0	0	0	512	520	0	516	38	13	
3	0	0	0	0	512	519	0	510	38	13	
4	0	0	0	0	509	517	0	505	38	13	
5	0	0	0	0	507	516	0	496	38	13	
6	0	0	0	0	509	513	0	469	38	13	
7	0	0	0	0	503	511	0	428	38	13	
8	0	0	0	0	504	508	0	388	38	13	
9	0	0	0	0	513	504	0	347	38	13	
10	0	0	0	0	505	503	0	350	38	13	
11	0	0	0	0	512	500	0	385	38	13	
12	0	0	0	0	512	499	0	447	38	13	
13	0	0	0	0	509	498	0	504	38	13	
14	0	0	0	0	507	496	0	528	38	13	
15	0	0	0	0	507	495	0	561	38	13	
0	0	0	0	0	512	495	0	561	38	13	
1	0	0	0	0	512	493	0	542	38	13	
2	0	0	0	0	508	492	0	511	38	13	
3	0	0	0	0	511	490	0	487	38	13	
4	0	0	0	0	506	489	0	455	38	13	
5	0	0	0	0	505	488	0	463	38	13	
6	0	0	0	0	505	488	0	494	38	13	
7	0	0	0	0	510	488	0	527	38	13	
8	0	0	0	0	510	486	0	539	38	13	
9	0	0	0	0	510	485	0	543	38	13	
10	0	0	0	0	505	485	0	560	38	13	
11	0	0	0	0	517	483	0	579	38	13	
12	0	0	0	0	507	482	0	592	38	13	
13	0	0	0	0	505	481	0	620	38	13	
14	0	0	0	0	511	481	0	620	38	13	
15	0	0	0	0	502	480	0	605	38	13	
0	0	0	0	0	512	479	0	608	38	13	
1	0	0	0	0	506	477	0	630	38	13	
2	0	0	0	0	513	477	0	640	38	13	
3	0	0	0	0	513	476	0	648	38	13	
4	0	0	0	0	510	475	0	653	38	13	
5	0	0	0	0	504	473	0	639	38	13	
6	0	0	0	0	511	474	0	613	38	13	
7	0	0	0	0	513	474	0	563	38	13	
8	0	0	0	0	503	473	0	510	38	13	
9	0	0	0	0	506	473	0	423	38	13	
10	0	0	0	0	508	472	0	342	38	13	
11	0	0	0	0	504	473	0	337	38	13	
12	0	0	0	0	514	473	0	376	38	13	
13	0	0	0	0	505	472	0	391	38	13	
14	0	0	0	0	503	470	0	418	38	13	
15	0	0	0	0	505	469	0	472	38	13	
0	0	0	0	0	500	468	0	512	38	13	
1	0	0	0	0	513	469	0	552	38	13	
2	0	0	0	0	510	470	0	592	38	13	
3	0	0	0	0	506	471	0	598	38	13	
4	0	0	0	0	512	472	0	563	38	13	
5	0	0	0	0	505	473	0	518	38	13	
6	0	0	0	0	511	471	0	501	38	13	
7	0	0	0	0	509	469	0	489	38	13	
8	0	0	0	0	505	468	0	515	38	13	
9	0	0	0	0	511	468	0	534	38	13	
10	0	0	0	0	508	467	0	581	38	13	
11	0	0	0	0	511	467	0	599	38	13	
12	0	0	0	0	512	466	0	587	38	13	
13	0	0	0	0	509	465	0	598	38	13	
14	0	0	0	0	513	466	0	610	38	13	
15	0	0	0	0	507	468	0	621	38	13	
0	0	0	0	0	499	471	0	619	38	13	
1	0	0	0	0	507	470	0	620	38	13	
2	0	0	0	0	507	470	0	628	38	13	
3	0	0	0	0	513	470	0	622	38	13	
4	0	0	0	0	504	472	0	609	38	13	
5	0	0	0	0	511	473	0	608	38	13	
6	0	0	0	0	512	473	0	608	38	13	
7	0	0	0	0	507	472	0	614	38	13	
8	0	0	0	0	515	473	0	609	38	13	
9	0	0	0	0	508	475	0	614	38	13	
10	0	0	0	0	509	475	0	616	38	13	
11	0	0	0	0	515	475	0	627	38	13	
12	0	0	0	0	505	477	0	584	38	13	
13	0	0	0	0	511	477	0	514	38	13	
14	0	0	0	0	511	478	0	504	38	13	
15	0	0	0	0	504	480	0	495	38	13	
0	0	0	0	0	505	480	0	486	38	13	
1	0	0	0	0	508	480	0	494	38	13	
2	0	0	0	0	507	481	0	457	38	13	
3	0	0	0	0	508	483	0	423	38	13	
4	0	0	0	0	507	485	0	414	38	13	
5	0	0	0	0	509	487	0	416	38	13	
6	0	0	0	0	502	487	0	446	38	13	
7	0	0	0	0	511	489	0	496	38	13	
8	0	0	0	0	511	489	0	552	38	13	
9	0	0	0	0	512	490	0	605	38	13	
10	0	0	0	0	513	490	0	638	38	13	
11	0	0	0	0	510	489	0	671	38	13	
12	0	0	0	0	506	489	0	676	38	13	
13	0	0	0	0	506	488	0	674	38	13	
14	0	0	0	0	508	489	0	691	38	13	
15	0	0	0	0	504	491	0	688	38	13	
0	0	0	0	0	512	493	0	667	38	13	
1	0	0	0	0	504	494	0	606	38	13	
2	0	0	0	0	507	494	0	556	38	13	
3	0	0	0	0	510	495	0	551	38	13	
4	0	0	0	0	504	499	0	512	38	13	
5	0	0	0	0	518	500	0	488	38	13	
6	0	0	0	0	504	500	0	492	38	13	
7	0	0	0	0	507	498	0	513	38	13	
8	0	0	0	0	517	497	0	545	38	13	
9	0	0	0	0	510	496	0	578	38	13	
10	0	0	0	0	509	497	0	627	38	13	
11	0	0	0	0	500	495	0	647	38	13	
12	0	0	0	0	506	493	0	699	38	13	
13	0	0	0	0	512	492	0	747	38	13	
14	0	0	0	0	511	491	0	768	38	13	
15	0	0	0	0	513	491	0	760	38	13	
0	0	0	0	0	506	491	0	738	38	13	
1	0	0	0	0	507	489	0	718	38	13	
2	0	0	0	0	513	487	0	712	38	13	
3	0	0	0	0	510	486	0	645	38	13	
4	0	0	0	0	506	487	0	612	38	13	
5	0	0	0	0	507	486	0	595	38	13	
6	0	0	0	0	510	486	0	587	38	13	
7	0	0	0	0	508	487	0	604	38	13	
8	0	0	0	0	509	489	0	634	38	13	
9	0	0	0	0	512	487	0	637	38	13	
10	0	0	0	0	508	485	0	595	38	13	
11	0	0	0	0	510	483	0	574	38	13	
12	0	0	0	0	507	484	0	575	38	13	
13	0	0	0	0	507	485	0	582	38	13	
14	0	0	0	0	511	484	0	615	38	13	
15	0	0	0	0	510	482	0	633	38	13	
0	0	0	0	0	512	482	0	625	38	13	
1	0	0	0	0	505	482	0	585	38	13	
2	0	0	0	0	510	480	0	550	38	13	
3	0	0	0	0	508	479	0	518	38	13	
4	0	0	0	0	503	477	0	472	38	13	
5	0	0	0	0	511	476	0	469	38	13	
6	0	0	0	0	507	477	0	488	38	13	
7	0	0	0	0	501	477	0	495	38	13	
8	0	0	0	0	512	477	0	499	38	13	
9	0	0	0	0	515	477	0	506	38	13	
10	0	0	0	0	505	477	0	526	38	13	
11	0	0	0	0	514	477	0	560	38	13	
12	0	0	0	0	510	477	0	583	38	13	
13	0	0	0	0	508	475	0	601	38	13	
14	0	0	0	0	510	474	0	613	38	13	
15	0	0	0	0	504	473	0	616	38	13	
0	0	0	0	0	513	473	0	615	38	13	
1	0	0	0	0	505	473	0	540	38	13	
2	0	0	0	0	509	474	0	457	38	13	
3	0	0	0	0	508	475	0	384	38	13	
4	0	0	0	0	507	474	0	374	38	13	
5	0	0	0	0	507	473	0	415	38	13	
6	0	0	0	0	511	473	0	459	38	13	
7	0	0	0	0	513	476	0	525	38	13	
8	0	0	0	0	508	478	0	585	38	13	
9	0	0	0	0	505	476	0	655	38	13	
10	0	0	0	0	509	475	0	687	38	13	
11	0	0	0	0	508	476	0	661	38	13	
12	0	0	0	0	514	477	0	620	38	13	
13	0	0	0	0	514	477	0	572	38	13	
14	0	0	0	0	502	476	0	531	38	13	
15	0	0	0	0	508	476	0	506	38	13	
0	0	0	0	0	509	476	0	480	38	13	
1	0	0	0	0	509	476	0	462	38	13	
2	0	0	0	0	514	476	0	448	38	13	
3	0	0	0	0	507	476	0	451	38	13	
4	0	0	0	0	504	478	0	471	38	13	
5	0	0	0	0	506	480	0	471	38	13	
6	0	0	0	0	512	479	0	495	38	13	
7	0	0	0	0	512	480	0	546	38	13	
8	0	0	0	0	515	482	0	595	38	13	
9	0	0	0	0	507	483	0	630	38	13	
10	0	0	0	0	511	480	0	627	38	13	
11	0	0	0	0	508	479	0	600	38	13	
12	0	0	0	0	508	478	0	563	38	13	
13	0	0	0	0	511	475	0	544	38	13	
14	0	0	0	0	506	468	0	526	38	13	
15	0	0	0	0	512	465	0	502	38	13	
0	0	0	0	0	515	463	0	489	38	13	
1	0	0	0	0	504	459	0	505	38	13	
2	0	0	0	0	508	454	0	563	38	13	
3	0	0	0	0	509	450	0	623	38	13	
4	0	0	0	0	503	448	0	659	38	13	
5	0	0	0	0	503	446	0	679	38	13	
6	0	0	0	0	510	444	0	671	38	13	
7	0	0	0	0	509	445	0	616	38	13	
8	0	0	0	0	512	449	0	540	38	13	
9	0	0	0	0	510	452	0	520	38	13	
10	0	0	0	0	504	456	0	538	38	13	
11	0	0	0	0	504	461	0	551	38	13	
12	0	0	0	0	508	467	0	563	38	13	
13	0	0	0	0	510	473	0	554	38	13	
14	0	0	0	0	509	481	0	521	38	13	
15	0	0	0	0	509	487	0	482	38	13	
0	0	0	0	0	505	494	0	468	38	13	
1	0	0	0	0	506	503	0	478	38	13	
2	0	0	0	0	507	511	0	493	38	13	
3	0	0	0	0	517	519	0	488	38	13	
4	0	0	0	0	510	527	0	496	38	13	
5	0	0	0	0	505	540	0	504	38	13	
6	0	0	0	0	511	553	0	499	38	13	
7	0	0	0	0	512	558	0	498	38	13	
8	0	0	0	0	512	562	0	489	38	13	
9	0	0	0	0	507	566	0	479	38	13	
10	0	0	0	0	507	571	0	478	38	13	
11	0	0	0	0	504	575	0	512	38	13	
12	0	0	0	0	515	578	0	541	38	13	
13	0	0	0	0	508	581	0	567	38	13	
14	0	0	0	0	510	587	0	597	38	13	
15	0	0	0	0	503	590	0	585	38	13	
0	0	0	0	0	509	586	0	574	38	13	
1	0	0	0	0	507	580	0	597	38	13	
2	0	0	0	0	506	575	0	627	38	13	
3	0	0	0	0	517	567	0	645	38	13	
4	0	0	0	0	506	554	0	632	38	13	
5	0	0	0	0	509	540	0	610	38	13	
6	0	0	0	0	511	526	0	615	38	13	
7	0	0	0	0	505	512	0	637	38	13	
8	0	0	0	0	508	499	0	629	38	13	
9	0	0	0	0	509	490	0	594	38	13	
10	0	0	0	0	515	483	0	587	38	13	
11	0	0	0	0	512	476	0	599	38	13	
12	0	0	0	0	508	470	0	607	38	13	
13	0	0	0	0	504	463	0	602	38	13	
14	0	0	0	0	511	459	0	572	38	13	
15	0	0	0	0	503	455	0	564	38	13	
0	0	0	0	0	512	451	0	559	38	13	
1	0	0	0	0	511	449	0	548	38	13	
2	0	0	0	0	505	446	0	534	38	13	
3	0	0	0	0	508	441	0	539	38	13	
4	0	0	0	0	508	439	0	581	38	13	
5	0	0	0	0	512	440	0	620	38	13	
6	0	0	0	0	507	443	0	607	38	13	
7	0	0	0	0	504	444	0	592	38	13	
8	0	0	0	0	505	443	0	583	38	13	
9	0	0	0	0	515	443	0	621	38	13	
10	0	0	0	0	508	445	0	661	38	13	
11	0	0	0	0	508	448	0	682	38	13	
12	0	0	0	0	507	451	0	655	38	13	
13	0	0	0	0	510	451	0	597	38	13	
14	0	0	0	0	513	452	0	562	38	13	
15	0	0	0	0	517	454	0	537	38	13	
0	0	0	0	0	510	456	0	491	38	13	
1	0	0	0	0	511	457	0	460	38	13	
2	0	0	0	0	511	459	0	421	38	13	
3	0	0	0	0	505	460	0	395	38	13	
4	0	0	0	0	505	464	0	397	38	13	
5	0	0	0	0	501	471	0	403	38	13	
6	0	0	0	0	510	472	0	408	38	13	
7	0	0	0	0	504	471	0	423	38	13	
8	0	0	0	0	504	474	0	425	38	13	
9	0	0	0	0	512	481	0	416	38	13	
10	0	0	0	0	514	488	0	447	38	13	
11	0	0	0	0	506	493	0	497	38	13	
12	0	0	0	0	507	495	0	538	38	13	
13	0	0	0	0	515	496	0	557	38	13	
14	0	0	0	0	499	500	0	588	38	13	
15	0	0	0	0	504	504	0	589	38	13	
0	0	0	0	0	513	503	0	588	38	13	
1	0	0	0	0	510	503	0	563	38	13	
2	0	0	0	0	516	504	0	519	38	13	
3	0	0	0	0	507	504	0	484	38	13	
4	0	0	0	0	508	506	0	439	38	13	
5	0	0	0	0	510	507	0	425	38	13	
6	0	0	0	0	511	510	0	436	38	13	
7	0	0	0	0	507	512	0	458	38	13	
8	0	0	0	0	510	512	0	470	38	13	
9	0	0	0	0	505	512	0	500	38	13	
10	0	0	0	0	512	513	0	515	38	13	
11	0	0	0	0	510	514	0	525	38	13	
12	0	0	0	0	511	517	0	540	38	13	
13	0	0	0	0	506	517	0	536	38	13	
14	0	0	0	0	518	517	0	512	38	13	
15	0	0	0	0	508	518	0	518	38	13	
0	0	0	0	0	510	518	0	506	38	13	
1	0	0	0	0	510	517	0	496	38	13	
2	0	0	0	0	508	518	0	485	38	13	
3	0	0	0	0	505	520	0	478	38	13	
4	0	0	0	0	512	521	0	482	38	13	
5	0	0	0	0	508	520	0	494	38	13	
6	0	0	0	0	513	518	0	509	38	13	
7	0	0	0	0	513	519	0	476	38	13	
8	0	0	0	0	505	518	0	396	38	13	
9	0	0	0	0	509	516	0	322	38	13	
10	0	0	0	0	506	515	0	300	38	13	
11	0	0	0	0	506	513	0	296	38	13	
12	0	0	0	0	501	517	0	291	38	13	
13	0	0	0	0	514	521	0	296	38	13	
14	0	0	0	0	505	522	0	340	38	13	
15	0	0	0	0	504	521	0	395	38	13	
0	0	0	0	0	513	519	0	443	38	13	
1	0	0	0	0	511	518	0	495	38	13	
2	0	0	0	0	505	519	0	522	38	13	
3	0	0	0	0	509	521	0	504	38	13	
4	0	0	0	0	508	522	0	487	38	13	
5	0	0	0	0	508	521	0	480	38	13	
6	0	0	0	0	509	520	0	461	38	13	
7	0	0	0	0	507	521	0	417	38	13	
8	0	0	0	0	509	521	0	405	38	13	
9	0	0	0	0	505	522	0	419	38	13	
10	0	0	0	0	510	522	0	441	38	13	
11	0	0	0	0	515	522	0	449	38	13	
12	0	0	0	0	497	523	0	442	38	13	
13	0	0	0	0	506	524	0	432	38	13	
14	0	0	0	0	513	526	0	434	38	13	
15	0	0	0	0	510	526	0	438	38	13	
0	0	0	0	0	512	526	0	438	38	13	
1	0	0	0	0	507	526	0	432	38	13	
2	0	0	0	0	505	526	0	451	38	13	
3	0	0	0	0	511	526	0	471	38	13	
4	0	0	0	0	513	527	0	516	38	13	
5	0	0	0	0	502	529	0	545	38	13	
6	0	0	0	0	509	529	0	553	38	13	
7	0	0	0	0	509	527	0	535	38	13	
8	0	0	0	0	509	526	0	499	38	13	
9	0	0	0	0	512	526	0	532	38	13	
10	0	0	0	0	511	528	0	578	38	13	
11	0	0	0	0	512	529	0	590	38	13	
12	0	0	0	0	507	526	0	590	38	13	
13	0	0	0	0	509	527	0	576	38	13	
14	0	0	0	0	505	531	0	587	38	13	
15	0	0	0	0	504	536	0	608	38	13	
0	0	0	0	0	509	536	0	640	38	13	
1	0	0	0	0	504	535	0	641	38	13	
2	0	0	0	0	513	533	0	643	38	13	
3	0	0	0	0	512	536	0	659	38	13	
4	0	0	0	0	508	538	0	651	38	13	
5	0	0	0	0	501	539	0	604	38	13	
6	0	0	0	0	511	540	0	591	38	13	
7	0	0	0	0	508	540	0	582	38	13	
8	0	0	0	0	511	540	0	568	38	13	
9	0	0	0	0	505	541	0	559	38	13	
10	0	0	0	0	511	543	0	561	38	13	
11	0	0	0	0	507	542	0	560	38	13	
12	0	0	0	0	510	544	0	560	38	13	
13	0	0	0	0	511	545	0	581	38	13	
14	0	0	0	0	511	546	0	594	38	13	
15	0	0	0	0	510	548	0	564	38	13	
0	0	0	0	0	516	551	0	537	38	13	
1	0	0	0	0	510	552	0	506	38	13	
2	0	0	0	0	510	553	0	501	38	13	
3	0	0	0	0	508	553	0	516	38	13	
4	0	0	0	0	503	555	0	499	38	13	
5	0	0	0	0	507	556	0	441	38	13	
6	0	0	0	0	502	560	0	387	38	13	
7	0	0	0	0	510	560	0	359	38	13	
8	0	0	0	0	506	561	0	334	38	13	
9	0	0	0	0	509	562	0	345	38	13	
10	0	0	0	0	506	559	0	383	38	13	
11	0	0	0	0	508	559	0	430	38	13	
12	0	0	0	0	515	558	0	459	38	13	
13	0	0	0	0	508	557	0	451	38	13	
14	0	0	0	0	512	558	0	430	38	13	
15	0	0	0	0	513	560	0	365	38	13	
0	0	0	0	0	504	560	0	281	38	13	
1	0	0	0	0	510	560	0	286	38	13	
2	0	0	0	0	507	559	0	353	38	13	
3	0	0	0	0	506	558	0	404	38	13	
4	0	0	0	0	504	557	0	431	38	13	
5	0	0	0	0	519	556	0	445	38	13	
6	0	0	0	0	507	555	0	461	38	13	
7	0	0	0	0	515	558	0	499	38	13	
8	0	0	0	0	512	559	0	530	38	13	
9	0	0	0	0	507	559	0	560	38	13	
10	0	0	0	0	508	558	0	589	38	13	
11	0	0	0	0	508	558	0	601	38	13	
12	0	0	0	0	502	558	0	609	38	13	
13	0	0	0	0	506	556	0	606	38	13	
14	0	0	0	0	511	555	0	605	38	13	
15	0	0	0	0	509	555	0	591	38	13	
0	0	0	0	0	504	555	0	583	38	13	
1	0	0	0	0	517	556	0	592	38	13	
2	0	0	0	0	515	555	0	622	38	13	
3	0	0	0	0	510	555	0	649	38	13	
4	0	0	0	0	514	556	0	643	38	13	
5	0	0	0	0	512	553	0	653	38	13	
6	0	0	0	0	507	552	0	651	38	13	
7	0	0	0	0	504	551	0	627	38	13	
8	0	0	0	0	513	549	0	566	38	13	
9	0	0	0	0	508	547	0	500	38	13	
10	0	0	0	0	503	545	0	440	38	13	
11	0	0	0	0	503	544	0	418	38	13	
12	0	0	0	0	512	542	0	404	38	13	
13	0	0	0	0	508	544	0	398	38	13	
14	0	0	0	0	507	542	0	400	38	13	
15	0	0	0	0	510	540	0	412	38	13	
0	0	0	0	0	503	537	0	448	38	13	
1	0	0	0	0	513	536	0	476	38	13	
2	0	0	0	0	513	536	0	507	38	13	
3	0	0	0	0	507	535	0	534	38	13	
4	0	0	0	0	503	531	0	563	38	13	
5	0	0	0	0	512	530	0	595	38	13	
6	0	0	0	0	509	529	0	622	38	13	
7	0	0	0	0	503	526	0	609	38	13	
8	0	0	0	0	509	523	0	554	38	13	
9	0	0	0	0	515	519	0	518	38	13	
10	0	0	0	0	504	519	0	515	38	13	
11	0	0	0	0	510	519	0	521	38	13	
12	0	0	0	0	514	520	0	543	38	13	
13	0	0	0	0	509	517	0	546	38	13	
14	0	0	0	0	504	513	0	492	38	13	
15	0	0	0	0	510	513	0	408	38	13	
0	0	0	0	0	507	511	0	381	38	13	
1	0	0	0	0	510	506	0	372	38	13	
2	0	0	0	0	505	505	0	346	38	13	
3	0	0	0	0	505	507	0	314	38	13	
4	0	0	0	0	510	504	0	311	38	13	
5	0	0	0	0	507	501	0	320	38	13	
6	0	0	0	0	510	500	0	321	38	13	
7	0	0	0	0	509	499	0	329	38	13	
8	0	0	0	0	510	496	0	328	38	13	
9	0	0	0	0	510	496	0	308	38	13	
10	0	0	0	0	503	496	0	318	38	13	
11	0	0	0	0	506	494	0	306	38	13	
12	0	0	0	0	512	493	0	302	38	13	
13	0	0	0	0	508	494	0	316	38	13	
14	0	0	0	0	511	495	0	341	38	13	
15	0	0	0	0	508	493	0	361	38	13	
0	0	0	0	0	508	491	0	383	38	13	
1	0	0	0	0	508	491	0	397	38	13	
2	0	0	0	0	512	492	0	384	38	13	
3	0	0	0	0	508	490	0	363	38	13	
4	0	0	0	0	507	488	0	347	38	13	
5	0	0	0	0	509	487	0	326	38	13	
6	0	0	0	0	504	487	0	324	38	13	
7	0	0	0	0	500	487	0	351	38	13	
8	0	0	0	0	507	486	0	375	38	13	
9	0	0	0	0	504	486	0	391	38	13	
10	0	0	0	0	513	486	0	416	38	13	
11	0	0	0	0	509	485	0	420	38	13	
12	0	0	0	0	508	484	0	405	38	13	
13	0	0	0	0	507	482	0	387	38	13	
14	0	0	0	0	507	483	0	377	38	13	
15	0	0	0	0	510	485	0	408	38	13	
0	0	0	0	0	510	484	0	463	38	13	
1	0	0	0	0	510	485	0	522	38	13	
2	0	0	0	0	508	486	0	559	38	13	
3	0	0	0	0	505	485	0	557	38	13	
4	0	0	0	0	504	485	0	551	38	13	
5	0	0	0	0	503	484	0	568	38	13	
6	0	0	0	0	509	486	0	622	38	13	
7	0	0	0	0	510	488	0	670	38	13	
8	0	0	0	0	511	487	0	691	38	13	
9	0	0	0	0	505	487	0	715	38	13	
10	0	0	0	0	505	487	0	701	38	13	
11	0	0	0	0	508	486	0	650	38	13	
12	0	0	0	0	506	485	0	604	38	13	
13	0	0	0	0	513	487	0	558	38	13	
14	0	0	0	0	508	487	0	512	38	13	
15	0	0	0	0	506	487	0	485	38	13	
0	0	0	0	0	507	487	0	453	38	13	
1	0	0	0	0	502	485	0	427	38	13	
2	0	0	0	0	510	485	0	399	38	13	
3	0	0	0	0	515	490	0	382	38	13	
4	0	0	0	0	513	495	0	380	38	13	
5	0	0	0	0	514	495	0	390	38	13	
6	0	0	0	0	508	494	0	393	38	13	
7	0	0	0	0	502	493	0	403	38	13	
8	0	0	0	0	506	491	0	356	38	13	
9	0	0	0	0	511	492	0	322	38	13	
10	0	0	0	0	507	492	0	344	38	13	
11	0	0	0	0	514	493	0	367	38	13	
12	0	0	0	0	510	495	0	350	38	13	
13	0	0	0	0	512	493	0	345	38	13	
14	0	0	0	0	510	490	0	366	38	13	
15	0	0	0	0	502	488	0	391	38	13	
0	0	0	0	0	510	487	0	419	38	13	
1	0	0	0	0	506	489	0	463	38	13	
2	0	0	0	0	504	493	0	498	38	13	
3	0	0	0	0	509	495	0	528	38	13	
4	0	0	0	0	508	495	0	561	38	13	
5	0	0	0	0	513	496	0	579	38	13	
6	0	0	0	0	512	496	0	608	38	13	
7	0	0	0	0	511	495	0	596	38	13	
8	0	0	0	0	501	493	0	580	38	13	
9	0	0	0	0	516	492	0	557	38	13	
10	0	0	0	0	510	495	0	510	38	13	
11	0	0	0	0	508	497	0	440	38	13	
12	0	0	0	0	501	499	0	387	38	13	
13	0	0	0	0	512	499	0	387	38	13	
14	0	0	0	0	508	497	0	434	38	13	
15	0	0	0	0	513	497	0	486	38	13	
0	0	0	0	0	505	498	0	535	38	13	
1	0	0	0	0	511	499	0	581	38	13	
2	0	0	0	0	500	498	0	603	38	13	
3	0	0	0	0	508	499	0	633	38	13	
4	0	0	0	0	512	499	0	658	38	13	
5	0	0	0	0	515	499	0	624	38	13	
6	0	0	0	0	508	499	0	613	38	13	
7	0	0	0	0	512	502	0	612	38	13	
8	0	0	0	0	509	504	0	606	38	13	
9	0	0	0	0	516	505	0	619	38	13	
10	0	0	0	0	503	505	0	628	38	13	
11	0	0	0	0	507	505	0	627	38	13	
12	0	0	0	0	508	505	0	602	38	13	
13	0	0	0	0	511	504	0	576	38	13	
14	0	0	0	0	508	503	0	516	38	13	
15	0	0	0	0	505	500	0	471	38	13	
0	0	0	0	0	506	501	0	418	38	13	
1	0	0	0	0	507	504	0	352	38	13	
2	0	0	0	0	506	502	0	336	38	13	
3	0	0	0	0	513	498	0	361	38	13	
4	0	0	0	0	512	497	0	400	38	13	
5	0	0	0	0	508	497	0	449	38	13	
6	0	0	0	0	503	497	0	472	38	13	
7	0	0	0	0	507	498	0	501	38	13	
8	0	0	0	0	513	499	0	533	38	13	
9	0	0	0	0	505	498	0	540	38	13	
10	0	0	0	0	512	497	0	563	38	13	
11	0	0	0	0	513	497	0	566	38	13	
12	0	0	0	0	502	498	0	536	38	13	
13	0	0	0	0	511	499	0	496	38	13	
14	0	0	0	0	512	498	0	474	38	13	
15	0	0	0	0	509	499	0	470	38	13	
0	0	0	0	0	507	499	0	478	38	13	
1	0	0	0	0	505	499	0	502	38	13	
2	0	0	0	0	508	497	0	523	38	13	
3	0	0	0	0	510	495	0	541	38	13	
4	0	0	0	0	513	494	0	545	38	13	
5	0	0	0	0	507	493	0	523	38	13	
6	0	0	0	0	509	491	0	491	38	13	
7	0	0	0	0	508	489	0	463	38	13	
8	0	0	0	0	505	487	0	438	38	13	
9	0	0	0	0	505	486	0	445	38	13	
10	0	0	0	0	506	490	0	422	38	13	
11	0	0	0	0	515	492	0	391	38	13	
12	0	0	0	0	512	489	0	389	38	13	
13	0	0	0	0	512	488	0	399	38	13	
14	0	0	0	0	511	491	0	435	38	13	
15	0	0	0	0	512	491	0	477	38	13	
0	0	0	0	0	511	490	0	510	38	13	
1	0	0	0	0	506	492	0	531	38	13	
2	0	0	0	0	505	493	0	548	38	13	
3	0	0	0	0	504	493	0	557	38	13	
4	0	0	0	0	512	494	0	529	38	13	
5	0	0	0	0	502	492	0	477	38	13	
6	0	0	0	0	513	491	0	416	38	13	
7	0	0	0	0	510	490	0	384	38	13	
8	0	0	0	0	504	487	0	410	38	13	
9	0	0	0	0	511	487	0	467	38	13	
10	0	0	0	0	505	487	0	550	38	13	
11	0	0	0	0	507	486	0	625	38	13	
12	0	0	0	0	514	485	0	661	38	13	
13	0	0	0	0	509	485	0	692	38	13	
14	0	0	0	0	511	487	0	714	38	13	
15	0	0	0	0	504	487	0	734	38	13	
0	0	0	0	0	508	485	0	724	38	13	
1	0	0	0	0	502	485	0	687	38	13	
2	0	0	0	0	511	483	0	674	38	13	
3	0	0	0	0	509	482	0	675	38	13	
4	0	0	0	0	508	483	0	692	38	13	
5	0	0	0	0	506	482	0	691	38	13	
6	0	0	0	0	505	480	0	674	38	13	
7	0	0	0	0	507	480	0	678	38	13	
8	0	0	0	0	501	481	0	697	38	13	
9	0	0	0	0	512	479	0	736	38	13	
10	0	0	0	0	508	479	0	767	38	13	
11	0	0	0	0	511	483	0	741	38	13	
12	0	0	0	0	507	485	0	684	38	13	
13	0	0	0	0	512	485	0	641	38	13	
14	0	0	0	0	508	483	0	653	38	13	
15	0	0	0	0	515	482	0	652	38	13	
0	0	0	0	0	504	483	0	656	38	13	
1	0	0	0	0	506	486	0	655	38	13	
2	0	0	0	0	507	486	0	641	38	13	
3	0	0	0	0	507	484	0	633	38	13	
4	0	0	0	0	506	483	0	616	38	13	
5	0	0	0	0	512	484	0	583	38	13	
6	0	0	0	0	506	483	0	590	38	13	
7	0	0	0	0	507	481	0	601	38	13	
8	0	0	0	0	507	480	0	602	38	13	
9	0	0	0	0	510	476	0	594	38	13	
10	0	0	0	0	509	473	0	580	38	13	
11	0	0	0	0	510	471	0	558	38	13	
12	0	0	0	0	513	470	0	520	38	13	
13	0	0	0	0	510	468	0	496	38	13	
14	0	0	0	0	511	466	0	502	38	13	
15	0	0	0	0	515	464	0	528	38	13	
0	0	0	0	0	507	463	0	531	38	13	
1	0	0	0	0	516	464	0	515	38	13	
2	0	0	0	0	503	467	0	521	38	13	
3	0	0	0	0	507	468	0	535	38	13	
4	0	0	0	0	512	471	0	511	38	13	
5	0	0	0	0	505	475	0	485	38	13	
6	0	0	0	0	508	477	0	443	38	13	
7	0	0	0	0	512	481	0	407	38	13	
8	0	0	0	0	512	487	0	405	38	13	
9	0	0	0	0	504	492	0	435	38	13	
10	0	0	0	0	505	499	0	460	38	13	
11	0	0	0	0	508	504	0	491	38	13	
12	0	0	0	0	512	508	0	491	38	13	
13	0	0	0	0	507	511	0	473	38	13	
14	0	0	0	0	511	514	0	442	38	13	
15	0	0	0	0	507	519	0	426	38	13	
0	0	0	0	0	512	524	0	411	38	13	
1	0	0	0	0	512	526	0	420	38	13	
2	0	0	0	0	511	527	0	418	38	13	
3	0	0	0	0	511	530	0	423	38	13	
4	0	0	0	0	510	534	0	448	38	13	
5	0	0	0	0	496	537	0	443	38	13	
6	0	0	0	0	512	541	0	452	38	13	
7	0	0	0	0	515	545	0	471	38	13	
8	0	0	0	0	502	547	0	478	38	13	
9	0	0	0	0	508	545	0	475	38	13	
10	0	0	0	0	507	541	0	468	38	13	
11	0	0	0	0	513	536	0	498	38	13	
12	0	0	0	0	511	527	0	543	38	13	
13	0	0	0	0	508	515	0	555	38	13	
14	0	0	0	0	508	502	0	536	38	13	
15	0	0	0	0	505	491	0	524	38	13	
0	0	0	0	0	516	482	0	519	38	13	
1	0	0	0	0	507	475	0	538	38	13	
2	0	0	0	0	504	468	0	540	38	13	
3	0	0	0	0	512	463	0	543	38	13	
4	0	0	0	0	508	460	0	546	38	13	
5	0	0	0	0	512	457	0	560	38	13	
6	0	0	0	0	505	454	0	550	38	13	
7	0	0	0	0	512	451	0	526	38	13	
8	0	0	0	0	508	449	0	514	38	13	
9	0	0	0	0	507	448	0	512	38	13	
10	0	0	0	0	505	448	0	515	38	13	
11	0	0	0	0	514	450	0	516	38	13	
12	0	0	0	0	507	449	0	510	38	13	
13	0	0	0	0	508	448	0	498	38	13	
14	0	0	0	0	512	449	0	488	38	13	
15	0	0	0	0	510	451	0	498	38	13	
0	0	0	0	0	506	451	0	514	38	13	
1	0	0	0	0	502	453	0	523	38	13	
2	0	0	0	0	508	456	0	524	38	13	
3	0	0	0	0	512	457	0	499	38	13	
4	0	0	0	0	503	458	0	495	38	13	
5	0	0	0	0	505	460	0	487	38	13	
6	0	0	0	0	513	462	0	446	38	13	
7	0	0	0	0	512	462	0	396	38	13	
8	0	0	0	0	516	464	0	359	38	13	
9	0	0	0	0	510	469	0	357	38	13	
10	0	0	0	0	505	473	0	360	38	13	
11	0	0	0	0	504	476	0	335	38	13	
12	0	0	0	0	507	479	0	286	38	13	
13	0	0	0	0	508	482	0	255	38	13	
14	0	0	0	0	501	485	0	274	38	13	
15	0	0	0	0	508	487	0	285	38	13	
0	0	0	0	0	509	488	0	302	38	13	
1	0	0	0	0	517	490	0	343	38	13	
2	0	0	0	0	510	492	0	408	38	13	
3	0	0	0	0	505	494	0	480	38	13	
4	0	0	0	0	509	496	0	542	38	13	
5	0	0	0	0	506	497	0	587	38	13	
6	0	0	0	0	508	499	0	613	38	13	
7	0	0	0	0	512	499	0	627	38	13	
8	0	0	0	0	511	501	0	636	38	13	
9	0	0	0	0	507	501	0	638	38	13	
10	0	0	0	0	506	502	0	640	38	13	
11	0	0	0	0	504	503	0	611	38	13	
12	0	0	0	0	515	506	0	557	38	13	
13	0	0	0	0	500	508	0	504	38	13	
14	0	0	0	0	510	507	0	471	38	13	
15	0	0	0	0	507	506	0	456	38	13	
0	0	0	0	0	509	508	0	438	38	13	
1	0	0	0	0	503	508	0	431	38	13	
2	0	0	0	0	510	508	0	450	38	13	
3	0	0	0	0	510	509	0	428	38	13	
4	0	0	0	0	510	509	0	432	38	13	
5	0	0	0	0	506	509	0	436	38	13	
6	0	0	0	0	512	509	0	410	38	13	
7	0	0	0	0	511	510	0	416	38	13	
8	0	0	0	0	507	511	0	446	38	13	
9	0	0	0	0	507	512	0	478	38	13	
10	0	0	0	0	511	513	0	489	38	13	
11	0	0	0	0	511	512	0	484	38	13	
12	0	0	0	0	506	512	0	498	38	13	
13	0	0	0	0	511	514	0	519	38	13	
14	0	0	0	0	503	515	0	531	38	13	
15	0	0	0	0	505	515	0	525	38	13	
0	0	0	0	0	509	515	0	491	38	13	
1	0	0	0	0	512	514	0	492	38	13	
2	0	0	0	0	510	515	0	511	38	13	
3	0	0	0	0	507	514	0	495	38	13	
4	0	0	0	0	504	514	0	493	38	13	
5	0	0	0	0	509	513	0	484	38	13	
6	0	0	0	0	510	514	0	461	38	13	
7	0	0	0	0	515	515	0	427	38	13	
8	0	0	0	0	514	515	0	445	38	13	
9	0	0	0	0	510	516	0	454	38	13	
10	0	0	0	0	511	517	0	456	38	13	
11	0	0	0	0	509	518	0	476	38	13	
12	0	0	0	0	513	519	0	523	38	13	
13	0	0	0	0	507	519	0	572	38	13	
14	0	0	0	0	511	519	0	593	38	13	
15	0	0	0	0	511	519	0	580	38	13	
0	0	0	0	0	505	519	0	557	38	13	
1	0	0	0	0	508	519	0	537	38	13	
2	0	0	0	0	507	520	0	550	38	13	
3	0	0	0	0	512	521	0	559	38	13	
4	0	0	0	0	510	520	0	551	38	13	
5	0	0	0	0	506	520	0	559	38	13	
6	0	0	0	0	511	520	0	559	38	13	
7	0	0	0	0	508	521	0	590	38	13	
8	0	0	0	0	504	523	0	612	38	13	
9	0	0	0	0	511	524	0	605	38	13	
10	0	0	0	0	498	525	0	566	38	13	
11	0	0	0	0	507	525	0	528	38	13	
12	0	0	0	0	511	526	0	503	38	13	
13	0	0	0	0	518	526	0	506	38	13	
14	0	0	0	0	505	527	0	510	38	13	
15	0	0	0	0	505	526	0	525	38	13	
0	0	0	0	0	509	526	0	547	38	13	
1	0	0	0	0	510	526	0	540	38	13	
2	0	0	0	0	506	525	0	482	38	13	
3	0	0	0	0	507	525	0	431	38	13	
4	0	0	0	0	511	525	0	419	38	13	
5	0	0	0	0	509	526	0	433	38	13	
6	0	0	0	0	508	527	0	447	38	13	
7	0	0	0	0	510	527	0	479	38	13	
8	0	0	0	0	505	527	0	480	38	13	
9	0	0	0	0	512	526	0	467	38	13	
10	0	0	0	0	508	526	0	478	38	13	
11	0	0	0	0	511	525	0	473	38	13	
12	0	0	0	0	511	525	0	441	38	13	
13	0	0	0	0	508	525	0	425	38	13	
14	0	0	0	0	503	525	0	431	38	13	
15	0	0	0	0	515	526	0	450	38	13	
0	0	0	0	0	511	527	0	471	38	13	
1	0	0	0	0	500	527	0	468	38	13	
2	0	0	0	0	513	527	0	480	38	13	
3	0	0	0	0	507	527	0	522	38	13	
4	0	0	0	0	509	526	0	574	38	13	
5	0	0	0	0	510	525	0	621	38	13	
6	0	0	0	0	506	526	0	655	38	13	
7	0	0	0	0	512	527	0	687	38	13	
8	0	0	0	0	512	528	0	727	38	13	
9	0	0	0	0	511	529	0	753	38	13	
10	0	0	0	0	507	529	0	753	38	13	
11	0	0	0	0	513	529	0	759	38	13	
12	0	0	0	0	508	531	0	755	38	13	
13	0	0	0	0	506	534	0	750	38	13	
14	0	0	0	0	508	535	0	736	38	13	
15	0	0	0	0	505	536	0	696	38	13	
0	0	0	0	0	507	536	0	666	38	13	
1	0	0	0	0	504	536	0	638	38	13	
2	0	0	0	0	510	538	0	632	38	13	
3	0	0	0	0	508	539	0	656	38	13	
4	0	0	0	0	504	540	0	674	38	13	
5	0	0	0	0	510	540	0	683	38	13	
6	0	0	0	0	508	540	0	690	38	13	
7	0	0	0	0	513	541	0	705	38	13	
8	0	0	0	0	512	542	0	714	38	13	
9	0	0	0	0	511	542	0	709	38	13	
10	0	0	0	0	504	540	0	682	38	13	
11	0	0	0	0	510	539	0	624	38	13	
12	0	0	0	0	510	538	0	564	38	13	
13	0	0	0	0	505	537	0	495	38	13	
14	0	0	0	0	512	537	0	413	38	13	
15	0	0	0	0	508	537	0	387	38	13	
0	0	0	0	0	509	536	0	404	38	13	
1	0	0	0	0	512	535	0	436	38	13	
2	0	0	0	0	504	534	0	472	38	13	
3	0	0	0	0	508	534	0	501	38	13	
4	0	0	0	0	508	535	0	527	38	13	
5	0	0	0	0	512	536	0	540	38	13	
6	0	0	0	0	509	536	0	493	38	13	
7	0	0	0	0	512	537	0	468	38	13	
8	0	0	0	0	508	537	0	467	38	13	
9	0	0	0	0	511	537	0	479	38	13	
10	0	0	0	0	504	536	0	494	38	13	
11	0	0	0	0	501	535	0	534	38	13	
12	0	0	0	0	508	533	0	581	38	13	
13	0	0	0	0	512	532	0	595	38	13	
14	0	0	0	0	514	531	0	564	38	13	
15	0	0	0	0	508	531	0	531	38	13	
0	0	0	0	0	509	530	0	517	38	13	
1	0	0	0	0	504	529	0	515	38	13	
2	0	0	0	0	504	529	0	529	38	13	
3	0	0	0	0	499	527	0	508	38	13	
4	0	0	0	0	508	527	0	444	38	13	
5	0	0	0	0	514	527	0	376	38	13	
6	0	0	0	0	508	527	0	367	38	13	
7	0	0	0	0	515	527	0	339	38	13	
8	0	0	0	0	515	525	0	374	38	13	
9	0	0	0	0	507	524	0	441	38	13	
10	0	0	0	0	510	522	0	518	38	13	
11	0	0	0	0	505	520	0	568	38	13	
12	0	0	0	0	502	519	0	589	38	13	
13	0	0	0	0	513	518	0	586	38	13	
14	0	0	0	0	511	519	0	560	38	13	
15	0	0	0	0	512	519	0	513	38	13	
0	0	0	0	0	513	518	0	461	38	13	
1	0	0	0	0	507	515	0	438	38	13	
2	0	0	0	0	505	512	0	428	38	13	
3	0	0	0	0	508	511	0	432	38	13	
4	0	0	0	0	509	511	0	467	38	13	
5	0	0	0	0	510	511	0	492	38	13	
6	0	0	0	0	509	509	0	484	38	13	
7	0	0	0	0	512	507	0	473	38	13	
8	0	0	0	0	509	505	0	470	38	13	
9	0	0	0	0	509	503	0	523	38	13	
10	0	0	0	0	515	501	0	568	38	13	
11	0	0	0	0	509	499	0	540	38	13	
12	0	0	0	0	504	497	0	463	38	13	
13	0	0	0	0	514	497	0	393	38	13	
14	0	0	0	0	505	496	0	372	38	13	
15	0	0	0	0	505	496	0	366	38	13	
0	0	0	0	0	510	496	0	359	38	13	
1	0	0	0	0	505	495	0	339	38	13	
2	0	0	0	0	507	493	0	331	38	13	
3	0	0	0	0	510	491	0	370	38	13	
4	0	0	0	0	501	490	0	422	38	13	
5	0	0	0	0	517	488	0	453	38	13	
6	0	0	0	0	507	487	0	436	38	13	
7	0	0	0	0	509	487	0	412	38	13	
8	0	0	0	0	507	487	0	436	38	13	
9	0	0	0	0	508	486	0	508	38	13	
10	0	0	0	0	506	487	0	562	38	13	
11	0	0	0	0	508	487	0	592	38	13	
12	0	0	0	0	508	487	0	598	38	13	
13	0	0	0	0	510	486	0	612	38	13	
14	0	0	0	0	507	486	0	630	38	13	
15	0	0	0	0	511	486	0	646	38	13	
0	0	0	0	0	509	486	0	639	38	13	
1	0	0	0	0	511	484	0	616	38	13	
2	0	0	0	0	510	483	0	617	38	13	
3	0	0	0	0	508	483	0	614	38	13	
4	0	0	0	0	507	484	0	600	38	13	
5	0	0	0	0	512	484	0	577	38	13	
6	0	0	0	0	508	484	0	548	38	13	
7	0	0	0	0	508	483	0	517	38	13	
8	0	0	0	0	508	481	0	492	38	13	
9	0	0	0	0	511	481	0	487	38	13	
10	0	0	0	0	504	481	0	504	38	13	
11	0	0	0	0	507	480	0	523	38	13	
12	0	0	0	0	507	481	0	527	38	13	
13	0	0	0	0	506	481	0	518	38	13	
14	0	0	0	0	505	482	0	522	38	13	
15	0	0	0	0	513	483	0	545	38	13	
0	0	0	0	0	512	483	0	555	38	13	
1	0	0	0	0	508	484	0	575	38	13	
2	0	0	0	0	511	485	0	603	38	13	
3	0	0	0	0	506	487	0	622	38	13	
4	0	0	0	0	509	487	0	629	38	13	
5	0	0	0	0	508	487	0	615	38	13	
6	0	0	0	0	518	487	0	587	38	13	
7	0	0	0	0	511	487	0	503	38	13	
8	0	0	0	0	508	487	0	401	38	13	
9	0	0	0	0	509	485	0	290	38	13	
10	0	0	0	0	502	484	0	182	38	13	
11	0	0	0	0	507	484	0	90	38	13	
12	0	0	0	0	507	484	0	34	38	13	
13	0	0	0	0	510	483	0	15	38	13	
14	0	0	0	0	507	483	0	13	38	13	
15	0	0	0	0	512	483	0	19	38	13	
0	0	0	0	0	512	483	0	65	38	13	
1	0	0	0	0	516	484	0	148	38	13	
2	0	0	0	0	511	484	0	224	38	13	
3	0	0	0	0	511	486	0	324	38	13	
4	0	0	0	0	511	485	0	386	38	13	
5	0	0	0	0	512	484	0	430	38	13	
6	0	0	0	0	510	484	0	446	38	13	
7	0	0	0	0	499	484	0	446	38	13	
8	0	0	0	0	513	485	0	450	38	13	
9	0	0	0	0	503	486	0	440	38	13	
10	0	0	0	0	501	485	0	427	38	13	
11	0	0	0	0	511	484	0	438	38	13	
12	0	0	0	0	511	484	0	456	38	13	
13	0	0	0	0	501	486	0	474	38	13	
14	0	0	0	0	512	486	0	505	38	13	
15	0	0	0	0	510	487	0	523	38	13	
0	0	0	0	0	514	488	0	531	38	13	
1	0	0	0	0	509	490	0	548	38	13	
2	0	0	0	0	505	491	0	563	38	13	
3	0	0	0	0	513	493	0	555	38	13	
4	0	0	0	0	503	492	0	574	38	13	
5	0	0	0	0	514	491	0	604	38	13	
6	0	0	0	0	513	491	0	620	38	13	
7	0	0	0	0	509	492	0	620	38	13	
8	0	0	0	0	505	492	0	606	38	13	
9	0	0	0	0	509	493	0	575	38	13	
10	0	0	0	0	509	495	0	528	38	13	
11	0	0	0	0	504	496	0	478	38	13	
12	0	0	0	0	509	497	0	474	38	13	
13	0	0	0	0	515	497	0	480	38	13	
14	0	0	0	0	514	495	0	521	38	13	
15	0	0	0	0	513	491	0	537	38	13	
0	0	0	0	0	500	491	0	473	38	13	
1	0	0	0	0	514	492	0	370	38	13	
2	0	0	0	0	514	495	0	300	38	13	
3	0	0	0	0	508	496	0	319	38	13	
4	0	0	0	0	513	496	0	388	38	13	
5	0	0	0	0	508	497	0	415	38	13	
6	0	0	0	0	506	497	0	399	38	13	
7	0	0	0	0	510	497	0	355	38	13	
8	0	0	0	0	508	497	0	338	38	13	
9	0	0	0	0	509	499	0	343	38	13	
10	0	0	0	0	509	499	0	349	38	13	
11	0	0	0	0	503	499	0	375	38	13	
12	0	0	0	0	503	497	0	399	38	13	
13	0	0	0	0	506	496	0	412	38	13	
14	0	0	0	0	510	496	0	422	38	13	
15	0	0	0	0	515	496	0	374	38	13	
0	0	0	0	0	508	495	0	368	38	13	
1	0	0	0	0	510	495	0	373	38	13	
2	0	0	0	0	505	495	0	401	38	13	
3	0	0	0	0	512	496	0	413	38	13	
4	0	0	0	0	513	495	0	419	38	13	
5	0	0	0	0	509	495	0	415	38	13	
6	0	0	0	0	505	495	0	419	38	13	
7	0	0	0	0	508	496	0	441	38	13	
8	0	0	0	0	511	496	0	474	38	13	
9	0	0	0	0	512	494	0	485	38	13	
10	0	0	0	0	505	494	0	501	38	13	
11	0	0	0	0	511	495	0	513	38	13	
12	0	0	0	0	502	495	0	534	38	13	
13	0	0	0	0	505	494	0	560	38	13	
14	0	0	0	0	507	493	0	546	38	13	
15	0	0	0	0	513	492	0	547	38	13	
0	0	0	0	0	515	492	0	535	38	13	
1	0	0	0	0	513	492	0	532	38	13	
2	0	0	0	0	508	492	0	555	38	13	
3	0	0	0	0	507	490	0	573	38	13	
4	0	0	0	0	512	489	0	588	38	13	
5	0	0	0	0	507	487	0	590	38	13	
6	0	0	0	0	504	486	0	565	38	13	
7	0	0	0	0	515	486	0	566	38	13	
8	0	0	0	0	509	484	0	537	38	13	
9	0	0	0	0	518	482	0	484	38	13	
10	0	0	0	0	501	482	0	409	38	13	
11	0	0	0	0	508	482	0	361	38	13	
12	0	0	0	0	507	481	0	364	38	13	
13	0	0	0	0	507	479	0	391	38	13	
14	0	0	0	0	515	479	0	443	38	13	
15	0	0	0	0	509	481	0	476	38	13	
0	0	0	0	0	502	481	0	496	38	13	
1	0	0	0	0	502	481	0	525	38	13	
2	0	0	0	0	508	481	0	527	38	13	
3	0	0	0	0	508	480	0	545	38	13	
4	0	0	0	0	515	481	0	572	38	13	
5	0	0	0	0	510	482	0	596	38	13	
6	0	0	0	0	509	482	0	632	38	13	
7	0	0	0	0	511	483	0	660	38	13	
8	0	0	0	0	507	484	0	662	38	13	
9	0	0	0	0	508	485	0	628	38	13	
10	0	0	0	0	505	484	0	583	38	13	
11	0	0	0	0	515	482	0	536	38	13	
12	0	0	0	0	510	481	0	473	38	13	
13	0	0	0	0	504	482	0	441	38	13	
14	0	0	0	0	513	480	0	424	38	13	
15	0	0	0	0	508	479	0	425	38	13	
0	0	0	0	0	507	480	0	434	38	13	
1	0	0	0	0	506	480	0	459	38	13	
2	0	0	0	0	501	481	0	496	38	13	
3	0	0	0	0	502	481	0	534	38	13	
4	0	0	0	0	509	482	0	572	38	13	
5	0	0	0	0	516	485	0	629	38	13	
6	0	0	0	0	507	485	0	688	38	13	
7	0	0	0	0	504	485	0	704	38	13	
8	0	0	0	0	506	487	0	692	38	13	
9	0	0	0	0	510	491	0	683	38	13	
10	0	0	0	0	509	491	0	643	38	13	
11	0	0	0	0	509	491	0	587	38	13	
12	0	0	0	0	511	489	0	570	38	13	
13	0	0	0	0	511	487	0	562	38	13	
14	0	0	0	0	505	485	0	563	38	13	
15	0	0	0	0	514	482	0	577	38	13	
0	0	0	0	0	510	480	0	591	38	13	
1	0	0	0	0	515	476	0	600	38	13	
2	0	0	0	0	508	472	0	611	38	13	
3	0	0	0	0	511	469	0	637	38	13	
4	0	0	0	0	513	467	0	619	38	13	
5	0	0	0	0	506	464	0	559	38	13	
6	0	0	0	0	505	460	0	503	38	13	
7	0	0	0	0	507	459	0	483	38	13	
8	0	0	0	0	519	459	0	519	38	13	
9	0	0	0	0	508	460	0	575	38	13	
10	0	0	0	0	507	460	0	635	38	13	
11	0	0	0	0	506	461	0	652	38	13	
12	0	0	0	0	511	462	0	626	38	13	
13	0	0	0	0	507	463	0	617	38	13	
14	0	0	0	0	503	465	0	625	38	13	
15	0	0	0	0	514	470	0	585	38	13	
0	0	0	0	0	506	476	0	534	38	13	
1	0	0	0	0	504	484	0	504	38	13	
2	0	0	0	0	504	489	0	481	38	13	
3	0	0	0	0	513	494	0	497	38	13	
4	0	0	0	0	507	499	0	524	38	13	
5	0	0	0	0	504	507	0	521	38	13	
6	0	0	0	0	514	514	0	504	38	13	
7	0	0	0	0	505	519	0	462	38	13	
8	0	0	0	0	507	522	0	444	38	13	
9	0	0	0	0	507	526	0	408	38	13	
10	0	0	0	0	507	531	0	353	38	13	
11	0	0	0	0	509	534	0	332	38	13	
12	0	0	0	0	506	537	0	339	38	13	
13	0	0	0	0	513	542	0	345	38	13	
14	0	0	0	0	511	546	0	376	38	13	
15	0	0	0	0	511	551	0	392	38	13	
0	0	0	0	0	508	553	0	408	38	13	
1	0	0	0	0	508	555	0	433	38	13	
2	0	0	0	0	514	555	0	458	38	13	
3	0	0	0	0	511	553	0	492	38	13	
4	0	0	0	0	503	549	0	507	38	13	
5	0	0	0	0	503	541	0	504	38	13	
6	0	0	0	0	512	531	0	512	38	13	
7	0	0	0	0	507	520	0	533	38	13	
8	0	0	0	0	509	509	0	553	38	13	
9	0	0	0	0	514	499	0	570	38	13	
10	0	0	0	0	509	488	0	571	38	13	
11	0	0	0	0	503	480	0	588	38	13	
12	0	0	0	0	510	474	0	575	38	13	
13	0	0	0	0	510	470	0	568	38	13	
14	0	0	0	0	508	464	0	584	38	13	
15	0	0	0	0	506	460	0	603	38	13	
0	0	0	0	0	515	456	0	638	38	13	
1	0	0	0	0	510	453	0	667	38	13	
2	0	0	0	0	509	451	0	684	38	13	
3	0	0	0	0	503	450	0	660	38	13	
4	0	0	0	0	502	449	0	595	38	13	
5	0	0	0	0	513	448	0	544	38	13	
6	0	0	0	0	508	449	0	534	38	13	
7	0	0	0	0	507	450	0	419	38	13	
8	0	0	0	0	512	451	0	355	38	13	
9	0	0	0	0	512	454	0	279	38	13	
10	0	0	0	0	505	456	0	214	38	13	
11	0	0	0	0	512	457	0	164	38	13	
12	0	0	0	0	504	460	0	156	38	13	
13	0	0	0	0	511	461	0	182	38	13	
14	0	0	0	0	511	462	0	239	38	13	
15	0	0	0	0	505	463	0	293	38	13	
0	0	0	0	0	511	464	0	341	38	13	
1	0	0	0	0	513	467	0	330	38	13	
2	0	0	0	0	509	469	0	299	38	13	
3	0	0	0	0	505	472	0	265	38	13	
4	0	0	0	0	509	475	0	270	38	13	
5	0	0	0	0	512	478	0	304	38	13	
6	0	0	0	0	512	481	0	364	38	13	
7	0	0	0	0	506	485	0	411	38	13	
8	0	0	0	0	512	490	0	458	38	13	
9	0	0	0	0	511	492	0	508	38	13	
10	0	0	0	0	512	494	0	526	38	13	
11	0	0	0	0	500	495	0	528	38	13	
12	0	0	0	0	508	496	0	505	38	13	
13	0	0	0	0	509	496	0	510	38	13	
14	0	0	0	0	512	499	0	533	38	13	
15	0	0	0	0	510	502	0	534	38	13	
0	0	0	0	0	513	503	0	509	38	13	
1	0	0	0	0	510	503	0	509	38	13	
2	0	0	0	0	505	504	0	500	38	13	
3	0	0	0	0	502	505	0	490	38	13	
4	0	0	0	0	512	506	0	502	38	13	
5	0	0	0	0	513	506	0	496	38	13	
6	0	0	0	0	511	508	0	511	38	13	
7	0	0	0	0	513	511	0	547	38	13	
8	0	0	0	0	506	512	0	598	38	13	
9	0	0	0	0	508	510	0	641	38	13	
10	0	0	0	0	508	509	0	657	38	13	
11	0	0	0	0	507	509	0	679	38	13	
12	0	0	0	0	503	510	0	669	38	13	
13	0	0	0	0	509	513	0	665	38	13	
14	0	0	0	0	511	513	0	660	38	13	
15	0	0	0	0	503	513	0	632	38	13	
0	0	0	0	0	510	512	0	609	38	13	
1	0	0	0	0	513	510	0	601	38	13	
2	0	0	0	0	508	513	0	580	38	13	
3	0	0	0	0	499	515	0	540	38	13	
4	0	0	0	0	508	514	0	506	38	13	
5	0	0	0	0	518	513	0	469	38	13	
6	0	0	0	0	510	514	0	458	38	13	
7	0	0	0	0	508	515	0	471	38	13	
8	0	0	0	0	508	516	0	485	38	13	
9	0	0	0	0	505	516	0	510	38	13	
10	0	0	0	0	515	513	0	544	38	13	
11	0	0	0	0	502	513	0	563	38	13	
12	0	0	0	0	510	515	0	584	38	13	
13	0	0	0	0	507	516	0	576	38	13	
14	0	0	0	0	510	516	0	589	38	13	
15	0	0	0	0	507	516	0	604	38	13	
0	0	0	0	0	509	517	0	637	38	13	
1	0	0	0	0	509	517	0	642	38	13	
2	0	0	0	0	509	518	0	615	38	13	
3	0	0	0	0	512	518	0	589	38	13	
4	0	0	0	0	510	518	0	565	38	13	
5	0	0	0	0	517	519	0	545	38	13	
6	0	0	0	0	508	518	0	546	38	13	
7	0	0	0	0	506	517	0	519	38	13	
8	0	0	0	0	509	519	0	473	38	13	
9	0	0	0	0	511	521	0	440	38	13	
10	0	0	0	0	507	523	0	403	38	13	
11	0	0	0	0	511	523	0	380	38	13	
12	0	0	0	0	517	522	0	380	38	13	
13	0	0	0	0	511	520	0	379	38	13	
14	0	0	0	0	505	521	0	383	38	13	
15	0	0	0	0	508	526	0	392	38	13	
0	0	0	0	0	508	528	0	414	38	13	
1	0	0	0	0	505	527	0	433	38	13	
2	0	0	0	0	504	526	0	436	38	13	
3	0	0	0	0	510	525	0	465	38	13	
4	0	0	0	0	511	526	0	482	38	13	
5	0	0	0	0	503	528	0	491	38	13	
6	0	0	0	0	513	527	0	495	38	13	
7	0	0	0	0	510	526	0	487	39	13	
8	0	0	0	0	512	526	0	494	38	13	
9	0	0	0	0	518	527	0	503	38	13	
10	0	0	0	0	504	528	0	519	38	13	
11	0	0	0	0	506	528	0	518	38	13	
12	0	0	0	0	500	527	0	527	38	13	
13	0	0	0	0	510	527	0	551	38	13	
14	0	0	0	0	510	528	0	572	38	13	
15	0	0	0	0	511	529	0	576	38	13	
0	0	0	0	0	510	530	0	593	38	13	
1	0	0	0	0	506	531	0	622	38	13	
2	0	0	0	0	505	531	0	637	38	13	
3	0	0	0	0	504	531	0	640	38	13	
4	0	0	0	0	511	532	0	646	38	13	
5	0	0	0	0	512	534	0	676	38	13	
6	0	0	0	0	506	533	0	696	38	13	
7	0	0	0	0	508	533	0	706	38	13	
8	0	0	0	0	503	537	0	694	38	13	
9	0	0	0	0	508	538	0	704	38	13	
10	0	0	0	0	512	541	0	737	38	13	
11	0	0	0	0	516	544	0	763	38	13	
12	0	0	0	0	510	545	0	751	38	13	
13	0	0	0	0	507	546	0	702	38	13	
14	0	0	0	0	511	547	0	612	38	13	
15	0	0	0	0	504	547	0	510	38	13	
0	0	0	0	0	512	549	0	412	38	13	
1	0	0	0	0	509	551	0	368	38	13	
2	0	0	0	0	512	550	0	374	38	13	
3	0	0	0	0	506	547	0	409	38	13	
4	0	0	0	0	511	546	0	440	38	13	
5	0	0	0	0	507	549	0	450	38	13	
6	0	0	0	0	504	551	0	408	38	13	
7	0	0	0	0	510	551	0	375	38	13	
8	0	0	0	0	516	553	0	394	38	13	
9	0	0	0	0	511	553	0	441	38	13	
10	0	0	0	0	505	554	0	491	38	13	
11	0	0	0	0	509	557	0	514	38	13	
12	0	0	0	0	505	558	0	518	38	13	
13	0	0	0	0	512	558	0	548	38	13	
14	0	0	0	0	513	556	0	566	38	13	
15	0	0	0	0	511	556	0	556	38	13	
0	0	0	0	0	512	556	0	512	38	13	
1	0	0	0	0	509	556	0	477	38	13	
2	0	0	0	0	507	556	0	481	38	13	
3	0	0	0	0	505	557	0	494	38	13	
4	0	0	0	0	507	559	0	498	38	13	
5	0	0	0	0	499	558	0	519	38	13	
6	0	0	0	0	504	557	0	507	38	13	
7	0	0	0	0	505	557	0	490	38	13	
8	0	0	0	0	512	558	0	475	38	13	
9	0	0	0	0	510	557	0	456	38	13	
10	0	0	0	0	507	556	0	473	38	13	
11	0	0	0	0	507	558	0	509	38	13	
12	0	0	0	0	513	558	0	531	38	13	
13	0	0	0	0	511	557	0	527	38	13	
14	0	0	0	0	507	556	0	515	38	13	
15	0	0	0	0	510	556	0	510	38	13	
0	0	0	0	0	512	556	0	527	38	13	
1	0	0	0	0	513	555	0	557	38	13	
2	0	0	0	0	519	553	0	556	38	13	
3	0	0	0	0	510	553	0	529	38	13	
4	0	0	0	0	506	555	0	498	38	13	
5	0	0	0	0	506	554	0	467	38	13	
6	0	0	0	0	507	553	0	456	38	13	
7	0	0	0	0	512	552	0	478	38	13	
8	0	0	0	0	505	552	0	515	38	13	
9	0	0	0	0	512	550	0	567	38	13	
10	0	0	0	0	514	551	0	572	38	13	
11	0	0	0	0	501	551	0	583	38	13	
12	0	0	0	0	513	550	0	594	38	13	
13	0	0	0	0	504	549	0	636	38	13	
14	0	0	0	0	511	547	0	678	38	13	
15	0	0	0	0	513	545	0	706	38	13	
0	0	0	0	0	511	543	0	731	38	13	
1	0	0	0	0	513	541	0	754	38	13	
2	0	0	0	0	508	543	0	737	38	13	
3	0	0	0	0	510	542	0	722	38	13	
4	0	0	0	0	507	539	0	697	38	13	
5	0	0	0	0	501	538	0	670	38	13	
6	0	0	0	0	508	536	0	624	38	13	
7	0	0	0	0	508	534	0	578	38	13	
8	0	0	0	0	512	530	0	527	38	13	
9	0	0	0	0	511	529	0	470	38	13	
10	0	0	0	0	504	527	0	427	38	13	
11	0	0	0	0	512	523	0	423	38	13	
12	0	0	0	0	508	521	0	422	38	13	
13	0	0	0	0	507	519	0	431	38	13	
14	0	0	0	0	506	518	0	458	38	13	
15	0	0	0	0	515	516	0	497	38	13	
0	0	0	0	0	516	515	0	521	38	13	
1	0	0	0	0	513	512	0	558	38	13	
2	0	0	0	0	510	510	0	589	38	13	
3	0	0	0	0	508	509	0	595	38	13	
4	0	0	0	0	503	508	0	574	38	13	
5	0	0	0	0	512	506	0	527	38	13	
6	0	0	0	0	510	505	0	476	38	13	
7	0	0	0	0	506	505	0	441	38	13	
8	0	0	0	0	503	505	0	449	38	13	
9	0	0	0	0	511	503	0	481	38	13	
10	0	0	0	0	512	499	0	465	38	13	
11	0	0	0	0	506	498	0	454	38	13	
12	0	0	0	0	511	499	0	427	38	13	
13	0	0	0	0	503	498	0	427	38	13	
14	0	0	0	0	507	496	0	432	38	13	
15	0	0	0	0	512	494	0	445	38	13	
0	0	0	0	0	508	492	0	452	38	13	
1	0	0	0	0	505	489	0	471	38	13	
2	0	0	0	0	513	487	0	489	38	13	
3	0	0	0	0	511	486	0	535	38	13	
4	0	0	0	0	508	484	0	591	38	13	
5	0	0	0	0	505	483	0	630	38	13	
6	0	0	0	0	512	483	0	640	38	13	
7	0	0	0	0	508	482	0	639	38	13	
8	0	0	0	0	506	481	0	653	38	13	
9	0	0	0	0	514	480	0	654	38	13	
10	0	0	0	0	511	480	0	666	38	13	
11	0	0	0	0	507	481	0	692	38	13	
12	0	0	0	0	505	483	0	715	38	13	
13	0	0	0	0	509	483	0	748	38	13	
14	0	0	0	0	513	483	0	763	38	13	
15	0	0	0	0	509	484	0	764	38	13	
0	0	0	0	0	500	482	0	742	38	13	
1	0	0	0	0	508	483	0	723	38	13	
2	0	0	0	0	512	483	0	703	38	13	
3	0	0	0	0	511	483	0	672	38	13	
4	0	0	0	0	506	485	0	643	38	13	
5	0	0	0	0	508	487	0	630	38	13	
6	0	0	0	0	506	487	0	594	38	13	
7	0	0	0	0	503	485	0	527	38	13	
8	0	0	0	0	503	481	0	475	38	13	
9	0	0	0	0	510	480	0	437	38	13	
10	0	0	0	0	503	480	0	393	38	13	
11	0	0	0	0	506	482	0	351	38	13	
12	0	0	0	0	512	483	0	338	38	13	
13	0	0	0	0	510	485	0	355	38	13	
14	0	0	0	0	509	486	0	360	38	13	
15	0	0	0	0	509	485	0	361	38	13	
0	0	0	0	0	510	484	0	384	38	13	
1	0	0	0	0	509	483	0	403	38	13	
2	0	0	0	0	513	484	0	430	38	13	
3	0	0	0	0	507	488	0	497	38	13	
4	0	0	0	0	510	489	0	541	38	13	
5	0	0	0	0	511	487	0	559	38	13	
6	0	0	0	0	504	487	0	569	38	13	
7	0	0	0	0	508	487	0	587	38	13	
8	0	0	0	0	511	488	0	602	38	13	
9	0	0	0	0	504	488	0	594	38	13	
10	0	0	0	0	510	491	0	560	38	13	
11	0	0	0	0	509	490	0	563	38	13	
12	0	0	0	0	508	488	0	577	38	13	
13	0	0	0	0	506	488	0	588	38	13	
14	0	0	0	0	505	488	0	582	38	13	
15	0	0	0	0	510	489	0	582	38	13	
0	0	0	0	0	514	489	0	570	38	13	
1	0	0	0	0	506	490	0	571	38	13	
2	0	0	0	0	512	491	0	579	38	13	
3	0	0	0	0	512	493	0	587	38	13	
4	0	0	0	0	507	496	0	589	38	13	
5	0	0	0	0	504	497	0	590	38	13	
6	0	0	0	0	513	496	0	579	38	13	
7	0	0	0	0	510	496	0	551	38	13	
8	0	0	0	0	511	496	0	524	38	13	
9	0	0	0	0	509	498	0	510	38	13	
10	0	0	0	0	506	501	0	536	38	13	
11	0	0	0	0	507	501	0	570	38	13	
12	0	0	0	0	512	503	0	564	38	13	
13	0	0	0	0	510	503	0	551	38	13	
14	0	0	0	0	509	501	0	545	38	13	
15	0	0	0	0	505	501	0	529	38	13	
0	0	0	0	0	506	503	0	507	38	13	
1	0	0	0	0	512	502	0	498	38	13	
2	0	0	0	0	510	503	0	520	38	13	
3	0	0	0	0	506	503	0	544	38	13	
4	0	0	0	0	506	504	0	556	38	13	
5	0	0	0	0	511	506	0	573	38	13	
6	0	0	0	0	505	506	0	591	38	13	
7	0	0	0	0	513	505	0	568	38	13	
8	0	0	0	0	510	505	0	519	38	13	
9	0	0	0	0	508	505	0	501	38	13	
10	0	0	0	0	506	505	0	508	38	13	
11	0	0	0	0	507	507	0	521	38	13	
12	0	0	0	0	514	508	0	528	38	13	
13	0	0	0	0	510	508	0	543	38	13	
14	0	0	0	0	506	508	0	556	38	13	
15	0	0	0	0	514	509	0	556	38	13	
0	0	0	0	0	507	508	0	494	38	13	
1	0	0	0	0	507	508	0	433	38	13	
2	0	0	0	0	513	508	0	394	38	13	
3	0	0	0	0	508	506	0	414	38	13	
4	0	0	0	0	503	505	0	452	38	13	
5	0	0	0	0	505	507	0	489	38	13	
6	0	0	0	0	513	507	0	506	38	13	
7	0	0	0	0	511	506	0	477	38	13	
8	0	0	0	0	502	505	0	464	38	13	
9	0	0	0	0	507	505	0	461	38	13	
10	0	0	0	0	512	505	0	473	38	13	
11	0	0	0	0	506	505	0	496	38	13	
12	0	0	0	0	509	505	0	511	38	13	
13	0	0	0	0	512	505	0	530	38	13	
14	0	0	0	0	502	505	0	553	38	13	
15	0	0	0	0	515	506	0	539	38	13	
0	0	0	0	0	509	506	0	514	38	13	
1	0	0	0	0	509	505	0	497	38	13	
2	0	0	0	0	510	502	0	483	38	13	
3	0	0	0	0	517	501	0	459	38	13	
4	0	0	0	0	511	502	0	421	38	13	
5	0	0	0	0	511	503	0	417	38	13	
6	0	0	0	0	500	504	0	391	38	13	
7	0	0	0	0	508	504	0	399	38	13	
8	0	0	0	0	509	504	0	428	38	13	
9	0	0	0	0	507	502	0	435	38	13	
10	0	0	0	0	509	500	0	440	38	13	
11	0	0	0	0	506	500	0	458	38	13	
12	0	0	0	0	512	501	0	465	38	13	
13	0	0	0	0	505	499	0	425	38	13	
14	0	0	0	0	507	498	0	412	38	13	
15	0	0	0	0	502	497	0	426	38	13	
0	0	0	0	0	507	495	0	452	38	13	
1	0	0	0	0	513	492	0	506	38	13	
2	0	0	0	0	513	492	0	557	38	13	
3	0	0	0	0	508	491	0	551	38	13	
4	0	0	0	0	513	491	0	543	38	13	
5	0	0	0	0	509	492	0	547	38	13	
6	0	0	0	0	510	492	0	560	38	13	
7	0	0	0	0	508	492	0	595	38	13	
8	0	0	0	0	508	490	0	608	38	13	
9	0	0	0	0	504	489	0	601	38	13	
10	0	0	0	0	508	488	0	620	38	13	
11	0	0	0	0	504	488	0	628	38	13	
12	0	0	0	0	507	486	0	623	38	13	
13	0	0	0	0	512	484	0	616	38	13	
14	0	0	0	0	512	485	0	620	38	13	
15	0	0	0	0	509	487	0	615	38	13	
0	0	0	0	0	510	487	0	599	38	13	
1	0	0	0	0	505	487	0	571	38	13	
2	0	0	0	0	507	485	0	532	38	13	
3	0	0	0	0	507	484	0	488	38	13	
4	0	0	0	0	504	484	0	443	38	13	
5	0	0	0	0	515	484	0	437	38	13	
6	0	0	0	0	513	483	0	419	38	13	
7	0	0	0	0	510	484	0	366	38	13	
8	0	0	0	0	506	484	0	343	38	13	
9	0	0	0	0	511	484	0	327	38	13	
10	0	0	0	0	505	485	0	322	38	13	
11	0	0	0	0	509	487	0	346	38	13	
12	0	0	0	0	512	487	0	365	38	13	
13	0	0	0	0	507	487	0	403	38	13	
14	0	0	0	0	509	486	0	444	38	13	
15	0	0	0	0	501	485	0	473	38	13	
0	0	0	0	0	511	485	0	492	38	13	
1	0	0	0	0	508	488	0	496	38	13	
2	0	0	0	0	512	487	0	516	38	13	
3	0	0	0	0	506	486	0	528	38	13	
4	0	0	0	0	512	488	0	526	38	13	
5	0	0	0	0	506	486	0	536	38	13	
6	0	0	0	0	503	486	0	525	38	13	
7	0	0	0	0	511	486	0	504	38	13	
8	0	0	0	0	512	485	0	501	38	13	
9	0	0	0	0	505	483	0	521	38	13	
10	0	0	0	0	510	478	0	523	38	13	
11	0	0	0	0	511	473	0	472	38	13	
12	0	0	0	0	510	467	0	438	38	13	
13	0	0	0	0	504	462	0	423	38	13	
14	0	0	0	0	507	459	0	444	38	13	
15	0	0	0	0	516	455	0	449	38	13	
0	0	0	0	0	502	452	0	449	38	13	
1	0	0	0	0	503	449	0	450	38	13	
2	0	0	0	0	505	448	0	443	38	13	
3	0	0	0	0	513	450	0	444	38	13	
4	0	0	0	0	516	451	0	463	38	13	
5	0	0	0	0	508	454	0	497	38	13	
6	0	0	0	0	512	457	0	503	38	13	
7	0	0	0	0	508	462	0	504	38	13	
8	0	0	0	0	507	466	0	505	38	13	
9	0	0	0	0	507	472	0	510	38	13	
10	0	0	0	0	511	476	0	523	38	13	
11	0	0	0	0	513	483	0	543	38	13	
12	0	0	0	0	510	491	0	553	38	13	
13	0	0	0	0	513	500	0	569	38	13	
14	0	0	0	0	514	508	0	575	38	13	
15	0	0	0	0	511	516	0	560	38	13	
0	0	0	0	0	505	524	0	567	38	13	
1	0	0	0	0	510	534	0	585	38	13	
2	0	0	0	0	513	543	0	594	38	13	
3	0	0	0	0	500	551	0	560	38	13	
4	0	0	0	0	505	555	0	536	38	13	
5	0	0	0	0	511	562	0	501	38	13	
6	0	0	0	0	511	568	0	462	38	13	
7	0	0	0	0	516	575	0	454	38	13	
8	0	0	0	0	510	581	0	472	38	13	
9	0	0	0	0	503	585	0	473	38	13	
10	0	0	0	0	507	590	0	439	38	13	
11	0	0	0	0	500	594	0	417	38	13	
12	0	0	0	0	509	596	0	398	38	13	
13	0	0	0	0	515	595	0	338	38	13	
14	0	0	0	0	501	589	0	275	38	13	
15	0	0	0	0	504	580	0	236	38	13	
0	0	0	0	0	509	569	0	201	38	13	
1	0	0	0	0	504	556	0	231	38	13	
2	0	0	0	0	508	541	0	316	38	13	
3	0	0	0	0	513	524	0	391	38	13	
4	0	0	0	0	508	510	0	435	38	13	
5	0	0	0	0	511	496	0	463	38	13	
6	0	0	0	0	515	485	0	518	38	13	
7	0	0	0	0	510	475	0	559	38	13	
8	0	0	0	0	511	466	0	563	38	13	
9	0	0	0	0	510	457	0	551	38	13	
10	0	0	0	0	505	449	0	505	38	13	
11	0	0	0	0	512	442	0	498	38	13	
12	0	0	0	0	514	435	0	512	38	13	
13	0	0	0	0	502	429	0	532	38	13	
14	0	0	0	0	501	425	0	553	38	13	
15	0	0	0	0	509	421	0	571	38	13	
0	0	0	0	0	506	417	0	595	38	13	
1	0	0	0	0	509	415	0	612	38	13	
2	0	0	0	0	508	414	0	613	38	13	
3	0	0	0	0	505	413	0	598	38	13	
4	0	0	0	0	509	413	0	590	38	13	
5	0	0	0	0	508	414	0	609	38	13	
6	0	0	0	0	519	417	0	626	38	13	
7	0	0	0	0	506	420	0	653	38	13	
8	0	0	0	0	516	422	0	663	38	13	
9	0	0	0	0	510	425	0	662	38	13	
10	0	0	0	0	507	431	0	660	38	13	
11	0	0	0	0	501	433	0	643	38	13	
12	0	0	0	0	508	436	0	631	38	13	
13	0	0	0	0	520	441	0	632	38	13	
14	0	0	0	0	512	445	0	627	38	13	
15	0	0	0	0	504	449	0	612	38	13	
0	0	0	0	0	511	454	0	617	38	13	
1	0	0	0	0	507	458	0	639	38	13	
2	0	0	0	0	507	462	0	636	38	13	
3	0	0	0	0	512	465	0	634	38	13	
4	0	0	0	0	509	470	0	658	38	13	
5	0	0	0	0	509	472	0	673	38	13	
6	0	0	0	0	511	476	0	674	38	13	
7	0	0	0	0	509	481	0	676	38	13	
8	0	0	0	0	502	486	0	661	38	13	
9	0	0	0	0	510	489	0	638	38	13	
10	0	0	0	0	504	492	0	611	38	13	
11	0	0	0	0	510	495	0	586	38	13	
12	0	0	0	0	504	497	0	559	38	13	
13	0	0	0	0	514	499	0	558	38	13	
14	0	0	0	0	501	501	0	575	38	13	
15	0	0	0	0	515	504	0	593	38	13	
0	0	0	0	0	505	506	0	585	38	13	
1	0	0	0	0	508	507	0	568	38	13	
2	0	0	0	0	509	508	0	577	38	13	
3	0	0	0	0	507	509	0	597	38	13	
4	0	0	0	0	512	509	0	597	38	13	
5	0	0	0	0	505	510	0	576	38	13	
6	0	0	0	0	505	509	0	557	38	13	
7	0	0	0	0	511	511	0	551	38	13	
8	0	0	0	0	503	511	0	564	38	13	
9	0	0	0	0	508	512	0	572	38	13	
10	0	0	0	0	510	513	0	568	38	13	
11	0	0	0	0	509	513	0	546	38	13	
12	0	0	0	0	508	513	0	534	38	13	
13	0	0	0	0	503	512	0	544	38	13	
14	0	0	0	0	504	512	0	521	38	13	
15	0	0	0	0	510	512	0	462	38	13	
0	0	0	0	0	508	512	0	385	38	13	
1	0	0	0	0	508	514	0	316	38	13	
2	0	0	0	0	508	515	0	291	38	13	
3	0	0	0	0	509	515	0	255	38	13	
4	0	0	0	0	512	516	0	250	38	13	
5	0	0	0	0	508	516	0	258	38	13	
6	0	0	0	0	508	515	0	280	38	13	
7	0	0	0	0	505	514	0	280	38	13	
8	0	0	0	0	511	512	0	284	38	13	
9	0	0	0	0	514	511	0	341	38	13	
10	0	0	0	0	510	511	0	354	38	13	
11	0	0	0	0	511	510	0	340	38	13	
12	0	0	0	0	503	510	0	342	38	13	
13	0	0	0	0	507	511	0	348	38	13	
14	0	0	0	0	501	510	0	354	38	13	
15	0	0	0	0	510	510	0	376	38	13	
0	0	0	0	0	505	510	0	424	38	13	
1	0	0	0	0	515	511	0	476	38	13	
2	0	0	0	0	515	512	0	521	38	13	
3	0	0	0	0	503	513	0	534	38	13	
4	0	0	0	0	499	513	0	511	38	13	
5	0	0	0	0	506	513	0	499	38	13	
6	0	0	0	0	507	513	0	519	38	13	
7	0	0	0	0	517	513	0	539	38	13	
8	0	0	0	0	516	514	0	564	38	13	
9	0	0	0	0	512	515	0	576	38	13	
10	0	0	0	0	502	516	0	561	38	13	
11	0	0	0	0	508	516	0	538	38	13	
12	0	0	0	0	511	515	0	475	38	13	
13	0	0	0	0	509	515	0	393	38	13	
14	0	0	0	0	502	516	0	318	38	13	
15	0	0	0	0	512	517	0	269	38	13	
0	0	0	0	0	511	518	0	270	38	13	
1	0	0	0	0	505	519	0	308	38	13	
2	0	0	0	0	508	519	0	342	38	13	
3	0	0	0	0	501	519	0	352	38	13	
4	0	0	0	0	508	519	0	344	38	13	
5	0	0	0	0	510	521	0	377	38	13	
6	0	0	0	0	512	522	0	413	38	13	
7	0	0	0	0	508	523	0	398	38	13	
8	0	0	0	0	510	523	0	395	38	13	
9	0	0	0	0	513	525	0	420	38	13	
10	0	0	0	0	510	526	0	487	38	13	
11	0	0	0	0	503	528	0	543	38	13	
12	0	0	0	0	507	528	0	542	38	13	
13	0	0	0	0	508	528	0	524	38	13	
14	0	0	0	0	509	527	0	491	38	13	
15	0	0	0	0	509	528	0	517	38	13	
0	0	0	0	0	506	529	0	522	38	13	
1	0	0	0	0	508	530	0	506	38	13	
2	0	0	0	0	508	531	0	489	38	13	
3	0	0	0	0	502	533	0	485	38	13	
4	0	0	0	0	506	533	0	508	38	13	
5	0	0	0	0	511	533	0	545	38	13	
6	0	0	0	0	508	533	0	564	38	13	
7	0	0	0	0	504	533	0	544	38	13	
8	0	0	0	0	504	533	0	497	38	13	
9	0	0	0	0	504	534	0	487	38	13	
10	0	0	0	0	511	535	0	485	38	13	
11	0	0	0	0	509	537	0	483	38	13	
12	0	0	0	0	511	538	0	500	38	13	
13	0	0	0	0	514	540	0	526	38	13	
14	0	0	0	0	505	540	0	551	38	13	
15	0	0	0	0	507	542	0	549	38	13	
0	0	0	0	0	509	542	0	518	38	13	
1	0	0	0	0	514	543	0	496	38	13	
2	0	0	0	0	510	543	0	478	38	13	
3	0	0	0	0	509	543	0	481	38	13	
4	0	0	0	0	508	541	0	484	38	13	
5	0	0	0	0	508	541	0	478	38	13	
6	0	0	0	0	510	541	0	442	38	13	
7	0	0	0	0	513	542	0	371	38	13	
8	0	0	0	0	508	542	0	316	38	13	
9	0	0	0	0	504	542	0	318	38	13	
10	0	0	0	0	509	542	0	347	38	13	
11	0	0	0	0	503	542	0	382	38	13	
12	0	0	0	0	513	544	0	401	38	13	
13	0	0	0	0	515	546	0	400	38	13	
14	0	0	0	0	511	546	0	423	38	13	
15	0	0	0	0	505	547	0	411	38	13	
0	0	0	0	0	509	547	0	408	38	13	
1	0	0	0	0	509	546	0	395	38	13	
2	0	0	0	0	504	545	0	412	38	13	
3	0	0	0	0	511	544	0	466	38	13	
4	0	0	0	0	506	544	0	505	38	13	
5	0	0	0	0	511	544	0	536	38	13	
6	0	0	0	0	513	543	0	569	38	13	
7	0	0	0	0	503	541	0	606	38	13	
8	0	0	0	0	508	539	0	611	38	13	
9	0	0	0	0	509	539	0	589	38	13	
10	0	0	0	0	510	537	0	529	38	13	
11	0	0	0	0	511	535	0	467	38	13	
12	0	0	0	0	512	534	0	428	38	13	
13	0	0	0	0	507	532	0	409	38	13	
14	0	0	0	0	514	532	0	412	38	13	
15	0	0	0	0	508	532	0	411	38	13	
0	0	0	0	0	508	531	0	413	38	13	
1	0	0	0	0	504	531	0	467	38	13	
2	0	0	0	0	516	530	0	539	38	13	
3	0	0	0	0	503	530	0	590	38	13	
4	0	0	0	0	502	530	0	598	38	13	
5	0	0	0	0	509	529	0	582	38	13	
6	0	0	0	0	503	528	0	590	38	13	
7	0	0	0	0	515	527	0	594	38	13	
8	0	0	0	0	508	527	0	605	38	13	
9	0	0	0	0	510	527	0	596	38	13	
10	0	0	0	0	504	526	0	588	38	13	
11	0	0	0	0	506	525	0	573	38	13	
12	0	0	0	0	512	523	0	575	38	13	
13	0	0	0	0	504	522	0	596	38	13	
14	0	0	0	0	513	521	0	622	38	13	
15	0	0	0	0	504	521	0	623	38	13	
0	0	0	0	0	506	518	0	630	38	13	
1	0	0	0	0	515	517	0	638	38	13	
2	0	0	0	0	511	515	0	627	38	13	
3	0	0	0	0	504	513	0	604	38	13	
4	0	0	0	0	508	511	0	599	38	13	
5	0	0	0	0	512	507	0	588	38	13	
6	0	0	0	0	512	505	0	606	38	13	
7	0	0	0	0	506	501	0	640	38	13	
8	0	0	0	0	512	497	0	679	38	13	
9	0	0	0	0	512	495	0	691	38	13	
10	0	0	0	0	507	492	0	696	38	13	
11	0	0	0	0	510	489	0	681	38	13	
12	0	0	0	0	512	487	0	600	38	13	
13	0	0	0	0	512	484	0	531	38	13	
14	0	0	0	0	513	482	0	480	38	13	
15	0	0	0	0	502	481	0	439	38	13	
0	0	0	0	0	507	479	0	401	38	13	
1	0	0	0	0	507	479	0	368	38	13	
2	0	0	0	0	511	476	0	282	38	13	
3	0	0	0	0	508	475	0	202	38	13	
4	0	0	0	0	508	474	0	183	38	13	
5	0	0	0	0	508	473	0	227	38	13	
6	0	0	0	0	506	471	0	287	38	13	
7	0	0	0	0	512	469	0	377	38	13	
8	0	0	0	0	506	468	0	478	38	13	
9	0	0	0	0	501	467	0	575	38	13	
10	0	0	0	0	510	465	0	594	38	13	
11	0	0	0	0	507	465	0	569	38	13	
12	0	0	0	0	508	465	0	573	38	13	
13	0	0	0	0	508	464	0	581	38	13	
14	0	0	0	0	508	464	0	600	38	13	
15	0	0	0	0	511	463	0	636	38	13	
0	0	0	0	0	510	464	0	656	38	13	
1	0	0	0	0	511	464	0	669	38	13	
2	0	0	0	0	509	464	0	692	38	13	
3	0	0	0	0	509	463	0	704	38	13	
4	0	0	0	0	519	461	0	691	38	13	
5	0	0	0	0	509	461	0	636	38	13	
6	0	0	0	0	510	461	0	572	38	13	
7	0	0	0	0	506	460	0	544	38	13	
8	0	0	0	0	511	460	0	519	38	13	
9	0	0	0	0	508	460	0	520	38	13	
10	0	0	0	0	511	459	0	514	38	13	
11	0	0	0	0	505	459	0	487	38	13	
12	0	0	0	0	501	459	0	434	38	13	
13	0	0	0	0	508	459	0	434	38	13	
14	0	0	0	0	511	459	0	459	38	13	
15	0	0	0	0	511	460	0	500	38	13	
0	0	0	0	0	505	459	0	484	38	13	
1	0	0	0	0	502	460	0	430	38	13	
2	0	0	0	0	514	461	0	421	38	13	
3	0	0	0	0	509	461	0	414	38	13	
4	0	0	0	0	510	463	0	383	38	13	
5	0	0	0	0	509	463	0	335	38	13	
6	0	0	0	0	508	463	0	294	38	13	
7	0	0	0	0	516	464	0	299	38	13	
8	0	0	0	0	512	466	0	329	38	13	
9	0	0	0	0	504	467	0	350	38	13	
10	0	0	0	0	509	467	0	395	38	13	
11	0	0	0	0	503	466	0	425	38	13	
12	0	0	0	0	508	466	0	434	38	13	
13	0	0	0	0	513	466	0	369	38	13	
14	0	0	0	0	515	467	0	286	38	13	
15	0	0	0	0	512	465	0	233	38	13	
0	0	0	0	0	508	463	0	180	38	13	
1	0	0	0	0	507	462	0	135	38	13	
2	0	0	0	0	510	463	0	139	38	13	
3	0	0	0	0	508	464	0	145	38	13	
4	0	0	0	0	508	466	0	192	38	13	
5	0	0	0	0	506	467	0	267	38	13	
6	0	0	0	0	513	468	0	337	38	13	
7	0	0	0	0	507	468	0	391	38	13	
8	0	0	0	0	509	471	0	441	38	13	
9	0	0	0	0	511	473	0	495	38	13	
10	0	0	0	0	509	473	0	529	38	13	
11	0	0	0	0	504	471	0	567	38	13	
12	0	0	0	0	504	470	0	578	38	13	
13	0	0	0	0	508	469	0	511	38	13	
14	0	0	0	0	512	469	0	451	38	13	
15	0	0	0	0	507	472	0	444	38	13	
0	0	0	0	0	511	475	0	483	38	13	
1	0	0	0	0	508	476	0	522	38	13	
2	0	0	0	0	508	476	0	566	38	13	
3	0	0	0	0	508	478	0	600	38	13	
4	0	0	0	0	508	480	0	616	38	13	
5	0	0	0	0	507	479	0	609	38	13	
6	0	0	0	0	511	477	0	579	38	13	
7	0	0	0	0	512	477	0	557	38	13	
8	0	0	0	0	514	477	0	525	38	13	
9	0	0	0	0	506	478	0	493	38	13	
10	0	0	0	0	510	479	0	511	38	13	
11	0	0	0	0	503	480	0	547	38	13	
12	0	0	0	0	509	481	0	579	38	13	
13	0	0	0	0	512	481	0	600	38	13	
14	0	0	0	0	507	483	0	615	38	13	
15	0	0	0	0	509	485	0	618	38	13	
0	0	0	0	0	510	487	0	624	38	13	
1	0	0	0	0	512	487	0	655	38	13	
2	0	0	0	0	504	486	0	685	38	13	
3	0	0	0	0	505	486	0	683	38	13	
4	0	0	0	0	503	487	0	659	38	13	
5	0	0	0	0	509	488	0	621	38	13	
6	0	0	0	0	508	487	0	600	38	13	
7	0	0	0	0	512	489	0	605	38	13	
8	0	0	0	0	508	491	0	585	38	13	
9	0	0	0	0	511	490	0	584	38	13	
10	0	0	0	0	504	489	0	571	38	13	
11	0	0	0	0	514	487	0	516	38	13	
12	0	0	0	0	515	489	0	483	38	13	
13	0	0	0	0	510	490	0	467	38	13	
14	0	0	0	0	510	492	0	470	38	13	
15	0	0	0	0	511	492	0	487	38	13	
0	0	0	0	0	510	493	0	526	38	13	
1	0	0	0	0	512	493	0	534	38	13	
2	0	0	0	0	504	493	0	506	38	13	
3	0	0	0	0	509	493	0	507	38	13	
4	0	0	0	0	501	492	0	519	38	13	
5	0	0	0	0	512	492	0	495	38	13	
6	0	0	0	0	508	491	0	489	38	13	
7	0	0	0	0	509	490	0	474	38	13	
8	0	0	0	0	512	489	0	469	38	13	
9	0	0	0	0	506	488	0	454	38	13	
10	0	0	0	0	506	489	0	427	38	13	
11	0	0	0	0	507	489	0	433	38	13	
12	0	0	0	0	505	490	0	428	38	13	
13	0	0	0	0	514	488	0	428	38	13	
14	0	0	0	0	516	487	0	428	38	13	
15	0	0	0	0	515	488	0	433	38	13	
0	0	0	0	0	503	488	0	433	38	13	
1	0	0	0	0	512	488	0	436	38	13	
2	0	0	0	0	508	487	0	448	38	13	
3	0	0	0	0	508	486	0	486	38	13	
4	0	0	0	0	506	487	0	524	38	13	
5	0	0	0	0	510	487	0	540	38	13	
6	0	0	0	0	508	487	0	534	38	13	
7	0	0	0	0	511	487	0	525	38	13	
8	0	0	0	0	506	487	0	523	38	13	
9	0	0	0	0	505	485	0	557	38	13	
10	0	0	0	0	506	482	0	591	38	13	
11	0	0	0	0	507	481	0	606	38	13	
12	0	0	0	0	508	478	0	636	38	13	
13	0	0	0	0	512	477	0	636	38	13	
14	0	0	0	0	505	477	0	619	38	13	
15	0	0	0	0	512	479	0	626	38	13	
0	0	0	0	0	507	480	0	648	38	13	
1	0	0	0	0	506	480	0	678	38	13	
2	0	0	0	0	511	480	0	681	38	13	
3	0	0	0	0	511	480	0	677	38	13	
4	0	0	0	0	505	478	0	660	38	13	
5	0	0	0	0	508	477	0	631	38	13	
6	0	0	0	0	506	478	0	614	38	13	
7	0	0	0	0	519	480	0	612	38	13	
8	0	0	0	0	509	480	0	610	38	13	
9	0	0	0	0	507	480	0	642	38	13	
10	0	0	0	0	507	479	0	679	38	13	
11	0	0	0	0	512	479	0	706	38	13	
12	0	0	0	0	510	478	0	686	38	13	
13	0	0	0	0	505	478	0	659	38	13	
14	0	0	0	0	503	477	0	615	38	13	
15	0	0	0	0	517	476	0	557	38	13	
0	0	0	0	0	509	478	0	522	38	13	
1	0	0	0	0	508	478	0	510	38	13	
2	0	0	0	0	508	478	0	503	38	13	
3	0	0	0	0	505	477	0	465	38	13	
4	0	0	0	0	509	477	0	419	38	13	
5	0	0	0	0	511	477	0	376	38	13	
6	0	0	0	0	508	476	0	345	38	13	
7	0	0	0	0	512	477	0	343	38	13	
8	0	0	0	0	508	477	0	360	38	13	
9	0	0	0	0	511	475	0	383	38	13	
10	0	0	0	0	506	474	0	447	38	13	
11	0	0	0	0	506	475	0	518	38	13	
12	0	0	0	0	506	477	0	552	38	13	
13	0	0	0	0	511	478	0	577	38	13	
14	0	0	0	0	511	478	0	586	38	13	
15	0	0	0	0	506	479	0	582	38	13	
0	0	0	0	0	508	480	0	590	38	13	
1	0	0	0	0	511	481	0	598	38	13	
2	0	0	0	0	507	480	0	611	38	13	
3	0	0	0	0	514	477	0	563	38	13	
4	0	0	0	0	505	474	0	514	38	13	
5	0	0	0	0	507	470	0	497	38	13	
6	0	0	0	0	513	467	0	497	38	13	
7	0	0	0	0	512	464	0	525	38	13	
8	0	0	0	0	511	462	0	548	38	13	
9	0	0	0	0	512	461	0	571	38	13	
10	0	0	0	0	508	460	0	601	38	13	
11	0	0	0	0	510	460	0	614	38	13	
12	0	0	0	0	505	459	0	609	38	13	
13	0	0	0	0	505	459	0	575	38	13	
14	0	0	0	0	509	460	0	593	38	13	
15	0	0	0	0	508	463	0	641	39	13	
0	0	0	0	0	505	466	0	675	38	13	
1	0	0	0	0	515	470	0	683	38	13	
2	0	0	0	0	512	475	0	668	38	13	
3	0	0	0	0	502	481	0	632	38	13	
4	0	0	0	0	504	487	0	615	38	13	
5	0	0	0	0	513	497	0	612	38	13	
6	0	0	0	0	508	506	0	603	39	13	
7	0	0	0	0	514	515	0	596	39	13	
8	0	0	0	0	505	524	0	591	38	13	
9	0	0	0	0	516	531	0	551	38	13	
10	0	0	0	0	504	537	0	488	38	13	
11	0	0	0	0	515	544	0	396	38	13	
12	0	0	0	0	507	550	0	347	39	13	
13	0	0	0	0	507	556	0	373	38	13	
14	0	0	0	0	508	560	0	421	39	13	
15	0	0	0	0	509	566	0	408	39	13	
0	0	0	0	0	507	569	0	365	39	13	
1	0	0	0	0	507	572	0	315	39	13	
2	0	0	0	0	504	574	0	263	39	13	
3	0	0	0	0	507	575	0	257	39	13	
4	0	0	0	0	501	577	0	282	38	13	
5	0	0	0	0	505	580	0	305	38	13	
6	0	0	0	0	511	577	0	332	38	13	
7	0	0	0	0	510	574	0	352	38	13	
8	0	0	0	0	513	567	0	390	39	13	
9	0	0	0	0	505	557	0	420	39	13	
10	0	0	0	0	508	545	0	413	39	13	
11	0	0	0	0	505	534	0	360	39	13	
12	0	0	0	0	511	519	0	354	39	13	
13	0	0	0	0	519	506	0	383	38	13	
14	0	0	0	0	507	496	0	404	38	13	
15	0	0	0	0	505	487	0	427	39	13	
0	0	0	0	0	506	480	0	463	39	13	
1	0	0	0	0	508	473	0	496	39	13	
2	0	0	0	0	506	467	0	510	39	13	
3	0	0	0	0	511	460	0	482	39	13	
4	0	0	0	0	503	454	0	460	38	13	
5	0	0	0	0	514	449	0	449	38	13	
6	0	0	0	0	512	444	0	470	38	13	
7	0	0	0	0	512	442	0	485	39	13	
8	0	0	0	0	518	440	0	498	38	13	
9	0	0	0	0	510	439	0	500	38	13	
10	0	0	0	0	510	441	0	491	38	13	
11	0	0	0	0	509	444	0	489	38	13	
12	0	0	0	0	506	444	0	475	38	13	
13	0	0	0	0	505	444	0	476	38	13	
14	0	0	0	0	505	446	0	482	38	13	
15	0	0	0	0	512	448	0	461	38	13	
0	0	0	0	0	512	449	0	444	38	13	
1	0	0	0	0	514	451	0	464	38	13	
2	0	0	0	0	508	452	0	484	38	13	
3	0	0	0	0	504	453	0	515	38	13	
4	0	0	0	0	507	456	0	551	38	13	
5	0	0	0	0	511	461	0	593	38	13	
6	0	0	0	0	515	464	0	599	38	13	
7	0	0	0	0	502	467	0	606	38	13	
8	0	0	0	0	504	471	0	616	38	13	
9	0	0	0	0	513	476	0	632	38	13	
10	0	0	0	0	507	480	0	609	38	13	
11	0	0	0	0	511	482	0	571	38	13	
12	0	0	0	0	508	483	0	512	38	13	
13	0	0	0	0	509	484	0	479	38	13	
14	0	0	0	0	508	486	0	452	38	13	
15	0	0	0	0	511	489	0	438	38	13	
0	0	0	0	0	513	491	0	443	38	13	
1	0	0	0	0	506	494	0	457	38	13	
2	0	0	0	0	510	497	0	489	38	13	
3	0	0	0	0	511	500	0	485	38	13	
4	0	0	0	0	511	504	0	499	38	13	
5	0	0	0	0	511	507	0	527	38	13	
6	0	0	0	0	509	508	0	521	38	13	
7	0	0	0	0	507	510	0	529	38	13	
8	0	0	0	0	513	512	0	543	38	13	
9	0	0	0	0	510	514	0	563	38	13	
10	0	0	0	0	507	515	0	594	38	13	
11	0	0	0	0	506	516	0	544	38	13	
12	0	0	0	0	508	515	0	490	38	13	
13	0	0	0	0	510	515	0	461	38	13	
14	0	0	0	0	504	515	0	456	38	13	
15	0	0	0	0	505	516	0	466	38	13	
0	0	0	0	0	513	516	0	507	38	13	
1	0	0	0	0	509	517	0	567	38	13	
2	0	0	0	0	510	517	0	608	38	13	
3	0	0	0	0	509	519	0	661	38	13	
4	0	0	0	0	506	519	0	704	38	13	
5	0	0	0	0	508	521	0	715	38	13	
6	0	0	0	0	516	521	0	722	38	13	
7	0	0	0	0	513	522	0	716	38	13	
8	0	0	0	0	512	523	0	710	38	13	
9	0	0	0	0	511	521	0	665	38	13	
10	0	0	0	0	512	520	0	650	38	13	
11	0	0	0	0	500	521	0	636	38	13	
12	0	0	0	0	506	520	0	603	38	13	
13	0	0	0	0	499	521	0	600	38	13	
14	0	0	0	0	509	520	0	598	38	13	
15	0	0	0	0	502	519	0	606	38	13	
0	0	0	0	0	508	520	0	611	38	13	
1	0	0	0	0	513	522	0	625	38	13	
2	0	0	0	0	512	522	0	649	38	13	
3	0	0	0	0	511	523	0	658	38	13	
4	0	0	0	0	507	523	0	663	38	13	
5	0	0	0	0	507	524	0	662	38	13	
6	0	0	0	0	509	527	0	655	38	13	
7	0	0	0	0	509	529	0	663	38	13	
8	0	0	0	0	502	531	0	623	38	13	
9	0	0	0	0	503	531	0	585	38	13	
10	0	0	0	0	511	532	0	536	38	13	
11	0	0	0	0	512	532	0	500	38	13	
12	0	0	0	0	512	531	0	522	38	13	
13	0	0	0	0	505	531	0	551	38	13	
14	0	0	0	0	505	532	0	558	38	13	
15	0	0	0	0	512	533	0	549	38	13	
0	0	0	0	0	501	533	0	508	38	13	
1	0	0	0	0	512	535	0	499	38	13	
2	0	0	0	0	514	534	0	510	38	13	
3	0	0	0	0	523	531	0	512	38	13	
4	0	0	0	0	506	529	0	539	38	13	
5	0	0	0	0	504	531	0	545	38	13	
6	0	0	0	0	510	532	0	562	38	13	
7	0	0	0	0	510	532	0	572	38	13	
8	0	0	0	0	514	530	0	504	38	13	
9	0	0	0	0	502	528	0	434	38	13	
10	0	0	0	0	511	530	0	392	38	13	
11	0	0	0	0	511	528	0	393	38	13	
12	0	0	0	0	510	529	0	425	38	13	
13	0	0	0	0	503	530	0	407	38	13	
14	0	0	0	0	512	530	0	400	38	13	
15	0	0	0	0	504	531	0	415	38	13	
0	0	0	0	0	511	534	0	458	38	13	
1	0	0	0	0	511	536	0	510	38	13	
2	0	0	0	0	505	538	0	514	38	13	
3	0	0	0	0	512	542	0	519	38	13	
4	0	0	0	0	514	543	0	532	38	13	
5	0	0	0	0	502	543	0	545	38	13	
6	0	0	0	0	504	545	0	562	38	13	
7	0	0	0	0	504	544	0	566	38	13	
8	0	0	0	0	509	540	0	566	38	13	
9	0	0	0	0	511	542	0	575	38	13	
10	0	0	0	0	513	543	0	576	38	13	
11	0	0	0	0	512	544	0	536	38	13	
12	0	0	0	0	508	544	0	490	38	13	
13	0	0	0	0	509	546	0	470	38	13	
14	0	0	0	0	513	547	0	467	38	13	
15	0	0	0	0	506	550	0	465	38	13	
0	0	0	0	0	515	550	0	474	38	13	
1	0	0	0	0	507	551	0	486	38	13	
2	0	0	0	0	513	553	0	489	38	13	
3	0	0	0	0	504	553	0	487	38	13	
4	0	0	0	0	510	551	0	478	38	13	
5	0	0	0	0	507	551	0	493	38	13	
6	0	0	0	0	508	551	0	493	38	13	
7	0	0	0	0	510	553	0	492	38	13	
8	0	0	0	0	511	554	0	505	38	13	
9	0	0	0	0	511	553	0	524	38	13	
10	0	0	0	0	509	555	0	538	38	13	
11	0	0	0	0	516	555	0	540	38	13	
12	0	0	0	0	518	554	0	532	38	13	
13	0	0	0	0	507	553	0	492	38	13	
14	0	0	0	0	509	554	0	441	38	13	
15	0	0	0	0	508	555	0	423	38	13	
0	0	0	0	0	510	558	0	447	38	13	
1	0	0	0	0	499	560	0	447	38	13	
2	0	0	0	0	511	562	0	431	38	13	
3	0	0	0	0	507	562	0	391	38	13	
4	0	0	0	0	508	560	0	343	38	13	
5	0	0	0	0	508	560	0	332	38	13	
6	0	0	0	0	510	562	0	372	38	13	
7	0	0	0	0	504	561	0	434	38	13	
8	0	0	0	0	515	561	0	502	38	13	
9	0	0	0	0	505	561	0	570	38	13	
10	0	0	0	0	508	562	0	609	38	13	
11	0	0	0	0	512	563	0	609	38	13	
12	0	0	0	0	510	563	0	576	38	13	
13	0	0	0	0	505	563	0	569	38	13	
14	0	0	0	0	510	564	0	575	38	13	
15	0	0	0	0	508	567	0	535	38	13	
0	0	0	0	0	503	566	0	506	38	13	
1	0	0	0	0	511	566	0	496	38	13	
2	0	0	0	0	514	568	0	499	38	13	
3	0	0	0	0	510	570	0	515	38	13	
4	0	0	0	0	506	571	0	524	38	13	
5	0	0	0	0	513	571	0	525	38	13	
6	0	0	0	0	505	569	0	530	38	13	
7	0	0	0	0	510	567	0	577	38	13	
8	0	0	0	0	507	564	0	608	38	13	
9	0	0	0	0	515	562	0	615	38	13	
10	0	0	0	0	505	559	0	594	38	13	
11	0	0	0	0	508	557	0	531	38	13	
12	0	0	0	0	503	556	0	493	38	13	
13	0	0	0	0	510	556	0	496	38	13	
14	0	0	0	0	511	555	0	528	38	13	
15	0	0	0	0	507	557	0	562	38	13	
0	0	0	0	0	512	556	0	575	38	13	
1	0	0	0	0	507	555	0	577	38	13	
2	0	0	0	0	516	556	0	555	38	13	
3	0	0	0	0	514	553	0	509	38	13	
4	0	0	0	0	509	554	0	465	38	13	
5	0	0	0	0	511	553	0	444	38	13	
6	0	0	0	0	508	550	0	444	38	13	
7	0	0	0	0	504	547	0	436	38	13	
8	0	0	0	0	505	545	0	430	38	13	
9	0	0	0	0	506	544	0	428	38	13	
10	0	0	0	0	504	542	0	428	38	13	
11	0	0	0	0	508	540	0	462	38	13	
12	0	0	0	0	510	537	0	506	38	13	
13	0	0	0	0	507	535	0	516	38	13	
14	0	0	0	0	518	535	0	543	38	13	
15	0	0	0	0	510	535	0	559	38	13	
0	0	0	0	0	504	532	0	576	38	13	
1	0	0	0	0	512	530	0	600	38	13	
2	0	0	0	0	504	528	0	607	38	13	
3	0	0	0	0	514	528	0	584	38	13	
4	0	0	0	0	507	527	0	521	38	13	
5	0	0	0	0	503	524	0	489	38	13	
6	0	0	0	0	512	521	0	503	38	13	
7	0	0	0	0	501	519	0	532	38	13	
8	0	0	0	0	510	516	0	544	38	13	
9	0	0	0	0	508	513	0	545	38	13	
10	0	0	0	0	513	512	0	554	38	13	
11	0	0	0	0	510	511	0	580	38	13	
12	0	0	0	0	512	512	0	607	38	13	
13	0	0	0	0	511	512	0	602	38	13	
14	0	0	0	0	508	514	0	590	38	13	
15	0	0	0	0	505	514	0	572	38	13	
0	0	0	0	0	511	512	0	553	38	13	
1	0	0	0	0	508	508	0	523	38	13	
2	0	0	0	0	513	507	0	463	38	13	
3	0	0	0	0	504	503	0	418	38	13	
4	0	0	0	0	505	501	0	442	38	13	
5	0	0	0	0	511	499	0	486	38	13	
6	0	0	0	0	508	499	0	490	38	13	
7	0	0	0	0	508	497	0	469	38	13	
8	0	0	0	0	509	497	0	451	38	13	
9	0	0	0	0	517	496	0	462	38	13	
10	0	0	0	0	505	497	0	485	38	13	
11	0	0	0	0	504	499	0	517	38	13	
12	0	0	0	0	505	499	0	544	38	13	
13	0	0	0	0	507	497	0	546	38	13	
14	0	0	0	0	508	496	0	526	38	13	
15	0	0	0	0	515	497	0	489	38	13	
0	0	0	0	0	511	497	0	497	38	13	
1	0	0	0	0	507	494	0	524	38	13	
2	0	0	0	0	511	493	0	542	38	13	
3	0	0	0	0	510	491	0	542	38	13	
4	0	0	0	0	508	492	0	497	38	13	
5	0	0	0	0	511	495	0	470	38	13	
6	0	0	0	0	508	496	0	444	38	13	
7	0	0	0	0	511	495	0	429	38	13	
8	0	0	0	0	510	494	0	459	38	13	
9	0	0	0	0	513	494	0	507	38	13	
10	0	0	0	0	501	494	0	531	38	13	
11	0	0	0	0	505	494	0	495	38	13	
12	0	0	0	0	507	493	0	428	38	13	
13	0	0	0	0	509	492	0	383	38	13	
14	0	0	0	0	513	492	0	366	38	13	
15	0	0	0	0	507	492	0	345	38	13	
0	0	0	0	0	507	491	0	321	38	13	
1	0	0	0	0	511	492	0	307	38	13	
2	0	0	0	0	514	496	0	326	38	13	
3	0	0	0	0	509	499	0	361	38	13	
4	0	0	0	0	509	500	0	355	38	13	
5	0	0	0	0	508	499	0	388	38	13	
6	0	0	0	0	508	499	0	435	38	13	
7	0	0	0	0	505	499	0	489	38	13	
8	0	0	0	0	500	500	0	534	38	13	
9	0	0	0	0	514	498	0	535	38	13	
10	0	0	0	0	509	497	0	497	38	13	
11	0	0	0	0	508	498	0	420	38	13	
12	0	0	0	0	507	496	0	393	38	13	
13	0	0	0	0	511	497	0	419	38	13	
14	0	0	0	0	508	500	0	461	38	13	
15	0	0	0	0	509	499	0	475	38	13	
0	0	0	0	0	512	496	0	465	38	13	
1	0	0	0	0	507	496	0	489	38	13	
2	0	0	0	0	505	499	0	523	38	13	
3	0	0	0	0	515	502	0	495	38	13	
4	0	0	0	0	506	502	0	470	38	13	
5	0	0	0	0	511	502	0	441	38	13	
6	0	0	0	0	512	501	0	434	38	13	
7	0	0	0	0	510	498	0	457	38	13	
8	0	0	0	0	515	497	0	484	38	13	
9	0	0	0	0	508	497	0	519	38	13	
10	0	0	0	0	507	496	0	493	38	13	
11	0	0	0	0	500	497	0	460	38	13	
12	0	0	0	0	511	498	0	453	38	13	
13	0	0	0	0	507	499	0	442	38	13	
14	0	0	0	0	506	499	0	417	38	13	
15	0	0	0	0	509	497	0	424	38	13	
0	0	0	0	0	510	492	0	476	38	13	
1	0	0	0	0	505	492	0	518	38	13	
2	0	0	0	0	509	497	0	551	38	13	
3	0	0	0	0	511	501	0	556	38	13	
4	0	0	0	0	508	503	0	530	38	13	
5	0	0	0	0	516	505	0	520	38	13	
6	0	0	0	0	518	507	0	529	38	13	
7	0	0	0	0	508	505	0	554	38	13	
8	0	0	0	0	507	504	0	556	38	13	
9	0	0	0	0	512	506	0	542	38	13	
10	0	0	0	0	508	510	0	561	38	13	
11	0	0	0	0	506	509	0	600	38	13	
12	0	0	0	0	505	511	0	612	38	13	
13	0	0	0	0	509	511	0	598	38	13	
14	0	0	0	0	513	511	0	563	38	13	
15	0	0	0	0	512	509	0	535	38	13	
0	0	0	0	0	510	505	0	516	38	13	
1	0	0	0	0	506	501	0	524	38	13	
2	0	0	0	0	503	502	0	551	38	13	
3	0	0	0	0	510	504	0	564	38	13	
4	0	0	0	0	506	505	0	585	38	13	
5	0	0	0	0	512	506	0	596	38	13	
6	0	0	0	0	506	505	0	572	38	13	
7	0	0	0	0	505	506	0	563	38	13	
8	0	0	0	0	512	508	0	550	38	13	
9	0	0	0	0	510	508	0	560	38	13	
10	0	0	0	0	505	511	0	575	38	13	
11	0	0	0	0	504	509	0	588	38	13	
12	0	0	0	0	508	507	0	606	38	13	
13	0	0	0	0	510	507	0	620	38	13	
14	0	0	0	0	512	508	0	629	38	13	
15	0	0	0	0	509	511	0	625	38	13	
0	0	0	0	0	508	514	0	628	38	13	
1	0	0	0	0	511	511	0	593	38	13	
2	0	0	0	0	507	507	0	540	38	13	
3	0	0	0	0	515	506	0	511	38	13	
4	0	0	0	0	509	508	0	494	38	13	
5	0	0	0	0	502	508	0	499	38	13	
6	0	0	0	0	511	506	0	517	38	13	
7	0	0	0	0	511	504	0	536	38	13	
8	0	0	0	0	508	502	0	578	38	13	
9	0	0	0	0	513	501	0	626	38	13	
10	0	0	0	0	504	502	0	661	38	13	
11	0	0	0	0	510	505	0	685	38	13	
12	0	0	0	0	501	504	0	702	38	13	
13	0	0	0	0	514	502	0	703	38	13	
14	0	0	0	0	513	499	0	686	38	13	
15	0	0	0	0	510	499	0	701	38	13	
0	0	0	0	0	508	500	0	689	38	13	
1	0	0	0	0	510	499	0	670	38	13	
2	0	0	0	0	510	498	0	679	38	13	
3	0	0	0	0	503	496	0	646	38	13	
4	0	0	0	0	502	495	0	592	38	13	
5	0	0	0	0	507	495	0	557	38	13	
6	0	0	0	0	514	494	0	545	38	13	
7	0	0	0	0	512	494	0	555	38	13	
8	0	0	0	0	508	493	0	543	38	13	
9	0	0	0	0	504	496	0	550	38	13	
10	0	0	0	0	507	497	0	551	38	13	
11	0	0	0	0	517	493	0	534	38	13	
12	0	0	0	0	509	492	0	528	38	13	
13	0	0	0	0	504	490	0	521	38	13	
14	0	0	0	0	509	488	0	536	38	13	
15	0	0	0	0	509	488	0	548	38	13	
0	0	0	0	0	506	491	0	539	38	13	
1	0	0	0	0	506	493	0	508	38	13	
2	0	0	0	0	519	491	0	467	38	13	
3	0	0	0	0	510	488	0	409	38	13	
4	0	0	0	0	504	487	0	355	38	13	
5	0	0	0	0	505	485	0	311	38	13	
6	0	0	0	0	504	484	0	314	38	13	
7	0	0	0	0	505	483	0	358	38	13	
8	0	0	0	0	512	485	0	408	38	13	
9	0	0	0	0	513	488	0	428	38	13	
10	0	0	0	0	507	487	0	436	38	13	
11	0	0	0	0	507	485	0	467	38	13	
12	0	0	0	0	505	484	0	496	38	13	
13	0	0	0	0	506	487	0	507	38	13	
14	0	0	0	0	516	488	0	523	38	13	
15	0	0	0	0	506	490	0	539	38	13	
0	0	0	0	0	510	493	0	588	38	13	
1	0	0	0	0	510	496	0	631	38	13	
2	0	0	0	0	503	496	0	661	38	13	
3	0	0	0	0	503	495	0	658	38	13	
4	0	0	0	0	513	495	0	648	38	13	
5	0	0	0	0	505	496	0	642	38	13	
6	0	0	0	0	499	496	0	613	38	13	
7	0	0	0	0	507	496	0	565	38	13	
8	0	0	0	0	508	495	0	554	38	13	
9	0	0	0	0	507	491	0	559	38	13	
10	0	0	0	0	514	491	0	575	38	13	
11	0	0	0	0	511	492	0	577	38	13	
12	0	0	0	0	509	492	0	572	38	13	
13	0	0	0	0	514	492	0	593	38	13	
14	0	0	0	0	513	488	0	632	38	13	
15	0	0	0	0	514	484	0	680	38	13	
0	0	0	0	0	509	481	0	721	38	13	
1	0	0	0	0	508	479	0	693	38	13	
2	0	0	0	0	507	478	0	650	38	13	
3	0	0	0	0	508	476	0	590	38	13	
4	0	0	0	0	508	476	0	562	38	13	
5	0	0	0	0	509	475	0	564	38	13	
6	0	0	0	0	510	476	0	557	38	13	
7	0	0	0	0	505	476	0	544	38	13	
8	0	0	0	0	504	477	0	521	38	13	
9	0	0	0	0	509	478	0	527	38	13	
10	0	0	0	0	515	480	0	551	38	13	
11	0	0	0	0	505	482	0	558	38	13	
12	0	0	0	0	513	482	0	525	38	13	
13	0	0	0	0	508	484	0	473	38	13	
14	0	0	0	0	511	488	0	429	38	13	
15	0	0	0	0	508	492	0	412	38	13	
0	0	0	0	0	510	497	0	404	38	13	
1	0	0	0	0	511	502	0	397	38	13	
2	0	0	0	0	504	507	0	390	38	13	
3	0	0	0	0	506	514	0	427	38	13	
4	0	0	0	0	499	519	0	453	38	13	
5	0	0	0	0	509	520	0	459	38	13	
6	0	0	0	0	504	524	0	446	38	13	
7	0	0	0	0	512	528	0	427	38	13	
8	0	0	0	0	511	529	0	436	38	13	
9	0	0	0	0	509	534	0	462	38	13	
10	0	0	0	0	510	538	0	463	38	13	
11	0	0	0	0	510	538	0	447	38	13	
12	0	0	0	0	508	542	0	409	38	13	
13	0	0	0	0	512	545	0	396	38	13	
14	0	0	0	0	513	548	0	390	38	13	
15	0	0	0	0	508	549	0	356	38	13	
0	0	0	0	0	506	548	0	352	38	13	
1	0	0	0	0	509	550	0	359	38	13	
2	0	0	0	0	511	545	0	397	38	13	
3	0	0	0	0	510	536	0	448	38	13	
4	0	0	0	0	507	527	0	492	38	13	
5	0	0	0	0	507	519	0	511	38	13	
6	0	0	0	0	514	509	0	503	38	13	
7	0	0	0	0	511	501	0	505	38	13	
8	0	0	0	0	516	491	0	497	38	13	
9	0	0	0	0	503	483	0	496	38	13	
10	0	0	0	0	503	473	0	510	38	13	
11	0	0	0	0	499	467	0	516	38	13	
12	0	0	0	0	510	470	0	503	38	13	
13	0	0	0	0	506	468	0	444	38	13	
14	0	0	0	0	510	462	0	422	38	13	
15	0	0	0	0	513	455	0	405	38	13	
0	0	0	0	0	508	454	0	383	38	13	
1	0	0	0	0	508	452	0	402	38	13	
2	0	0	0	0	510	452	0	405	38	13	
3	0	0	0	0	512	451	0	399	38	13	
4	0	0	0	0	508	451	0	403	38	13	
5	0	0	0	0	509	454	0	422	38	13	
6	0	0	0	0	510	455	0	446	38	13	
7	0	0	0	0	506	456	0	443	38	13	
8	0	0	0	0	507	457	0	458	38	13	
9	0	0	0	0	502	460	0	460	38	13	
10	0	0	0	0	508	463	0	457	38	13	
11	0	0	0	0	508	464	0	459	38	13	
12	0	0	0	0	513	466	0	466	38	13	
13	0	0	0	0	511	468	0	483	38	13	
14	0	0	0	0	513	473	0	484	38	13	
15	0	0	0	0	513	477	0	476	38	13	
0	0	0	0	0	508	480	0	487	38	13	
1	0	0	0	0	510	482	0	522	38	13	
2	0	0	0	0	512	485	0	544	38	13	
3	0	0	0	0	515	487	0	539	38	13	
4	0	0	0	0	505	487	0	532	38	13	
5	0	0	0	0	505	488	0	551	38	13	
6	0	0	0	0	513	492	0	557	38	13	
7	0	0	0	0	509	494	0	551	38	13	
8	0	0	0	0	501	495	0	496	38	13	
9	0	0	0	0	505	496	0	461	38	13	
10	0	0	0	0	513	496	0	482	38	13	
11	0	0	0	0	513	498	0	534	38	13	
12	0	0	0	0	511	503	0	552	38	13	
13	0	0	0	0	505	505	0	546	38	13	
14	0	0	0	0	504	506	0	526	38	13	
15	0	0	0	0	504	508	0	503	38	13	
0	0	0	0	0	513	508	0	508	38	13	
1	0	0	0	0	511	510	0	507	38	13	
2	0	0	0	0	507	509	0	537	38	13	
3	0	0	0	0	511	510	0	559	38	13	
4	0	0	0	0	511	511	0	564	38	13	
5	0	0	0	0	503	511	0	561	38	13	
6	0	0	0	0	509	512	0	554	38	13	
7	0	0	0	0	505	512	0	563	38	13	
8	0	0	0	0	510	513	0	568	38	13	
9	0	0	0	0	506	515	0	586	38	13	
10	0	0	0	0	510	515	0	620	38	13	
11	0	0	0	0	505	517	0	598	38	13	
12	0	0	0	0	508	518	0	575	38	13	
13	0	0	0	0	498	519	0	544	38	13	
14	0	0	0	0	508	518	0	517	38	13	
15	0	0	0	0	510	518	0	498	38	13	
0	0	0	0	0	508	520	0	508	38	13	
1	0	0	0	0	513	520	0	543	38	13	
2	0	0	0	0	502	519	0	567	38	13	
3	0	0	0	0	515	519	0	591	38	13	
4	0	0	0	0	509	521	0	613	38	13	
5	0	0	0	0	512	520	0	621	38	13	
6	0	0	0	0	512	518	0	604	38	13	
7	0	0	0	0	508	518	0	583	38	13	
8	0	0	0	0	507	518	0	588	38	13	
9	0	0	0	0	513	517	0	630	38	13	
10	0	0	0	0	510	516	0	652	38	13	
11	0	0	0	0	503	516	0	644	38	13	
12	0	0	0	0	512	517	0	621	38	13	
13	0	0	0	0	510	517	0	592	38	13	
14	0	0	0	0	505	517	0	593	38	13	
15	0	0	0	0	504	516	0	557	38	13	
0	0	0	0	0	515	515	0	521	38	13	
1	0	0	0	0	506	514	0	491	38	13	
2	0	0	0	0	504	515	0	493	38	13	
3	0	0	0	0	510	516	0	519	38	13	
4	0	0	0	0	511	517	0	529	38	13	
5	0	0	0	0	509	518	0	548	38	13	
6	0	0	0	0	506	519	0	561	38	13	
7	0	0	0	0	504	519	0	587	38	13	
8	0	0	0	0	505	521	0	591	38	13	
9	0	0	0	0	511	523	0	580	38	13	
10	0	0	0	0	511	524	0	568	38	13	
11	0	0	0	0	505	524	0	537	38	13	
12	0	0	0	0	510	524	0	524	38	13	
13	0	0	0	0	508	525	0	505	38	13	
14	0	0	0	0	507	527	0	507	38	13	
15	0	0	0	0	515	528	0	522	38	13	
0	0	0	0	0	515	529	0	535	38	13	
1	0	0	0	0	508	527	0	546	38	13	
2	0	0	0	0	514	526	0	551	38	13	
3	0	0	0	0	507	526	0	554	38	13	
4	0	0	0	0	505	527	0	570	38	13	
5	0	0	0	0	502	528	0	598	38	13	
6	0	0	0	0	504	529	0	607	38	13	
7	0	0	0	0	512	530	0	537	38	13	
8	0	0	0	0	513	529	0	477	38	13	
9	0	0	0	0	510	528	0	456	38	13	
10	0	0	0	0	513	529	0	471	38	13	
11	0	0	0	0	503	531	0	508	38	13	
12	0	0	0	0	509	531	0	496	38	13	
13	0	0	0	0	513	529	0	471	38	13	
14	0	0	0	0	514	529	0	473	38	13	
15	0	0	0	0	506	529	0	470	38	13	
0	0	0	0	0	508	530	0	491	38	13	
1	0	0	0	0	509	530	0	545	38	13	
2	0	0	0	0	513	531	0	587	38	13	
3	0	0	0	0	505	531	0	598	38	13	
4	0	0	0	0	508	531	0	583	38	13	
5	0	0	0	0	503	533	0	569	38	13	
6	0	0	0	0	507	534	0	555	38	13	
7	0	0	0	0	510	535	0	577	38	13	
8	0	0	0	0	508	535	0	594	38	13	
9	0	0	0	0	511	535	0	575	38	13	
10	0	0	0	0	504	535	0	565	38	13	
11	0	0	0	0	505	536	0	573	38	13	
12	0	0	0	0	506	536	0	569	38	13	
13	0	0	0	0	513	537	0	561	38	13	
14	0	0	0	0	500	539	0	517	38	13	
15	0	0	0	0	511	540	0	537	38	13	
0	0	0	0	0	512	541	0	549	38	13	
1	0	0	0	0	511	544	0	520	38	13	
2	0	0	0	0	510	542	0	487	38	13	
3	0	0	0	0	513	540	0	475	38	13	
4	0	0	0	0	507	539	0	471	38	13	
5	0	0	0	0	510	539	0	471	38	13	
6	0	0	0	0	508	539	0	473	38	13	
7	0	0	0	0	508	539	0	500	38	13	
8	0	0	0	0	509	539	0	521	38	13	
9	0	0	0	0	510	541	0	517	38	13	
10	0	0	0	0	508	543	0	538	38	13	
11	0	0	0	0	513	545	0	547	38	13	
12	0	0	0	0	513	545	0	547	38	13	
13	0	0	0	0	508	546	0	551	38	13	
14	0	0	0	0	515	545	0	543	38	13	
15	0	0	0	0	505	545	0	526	38	13	
0	0	0	0	0	512	545	0	498	38	13	
1	0	0	0	0	505	546	0	449	38	13	
2	0	0	0	0	506	546	0	417	38	13	
3	0	0	0	0	507	546	0	405	38	13	
4	0	0	0	0	513	546	0	422	38	13	
5	0	0	0	0	510	546	0	441	38	13	
6	0	0	0	0	503	545	0	441	38	13	
7	0	0	0	0	497	545	0	405	38	13	
8	0	0	0	0	514	546	0	390	38	13	
9	0	0	0	0	519	547	0	381	38	13	
10	0	0	0	0	513	550	0	357	38	13	
11	0	0	0	0	507	550	0	303	38	13	
12	0	0	0	0	502	547	0	241	38	13	
13	0	0	0	0	503	547	0	187	38	13	
14	0	0	0	0	507	547	0	185	38	13	
15	0	0	0	0	508	546	0	193	38	13	
0	0	0	0	0	504	545	0	224	38	13	
1	0	0	0	0	508	545	0	272	38	13	
2	0	0	0	0	502	545	0	324	38	13	
3	0	0	0	0	516	545	0	369	38	13	
4	0	0	0	0	509	545	0	422	38	13	
5	0	0	0	0	507	544	0	483	38	13	
6	0	0	0	0	513	543	0	536	38	13	
7	0	0	0	0	508	542	0	577	38	13	
8	0	0	0	0	503	540	0	601	38	13	
9	0	0	0	0	507	539	0	577	38	13	
10	0	0	0	0	511	536	0	527	38	13	
11	0	0	0	0	515	536	0	491	38	13	
12	0	0	0	0	513	536	0	486	38	13	
13	0	0	0	0	504	534	0	498	38	13	
14	0	0	0	0	512	533	0	499	38	13	
15	0	0	0	0	512	533	0	502	38	13	
0	0	0	0	0	506	531	0	499	38	13	
1	0	0	0	0	510	529	0	524	38	13	
2	0	0	0	0	507	526	0	559	38	13	
3	0	0	0	0	508	524	0	543	38	13	
4	0	0	0	0	510	523	0	499	38	13	
5	0	0	0	0	503	523	0	413	38	13	
6	0	0	0	0	511	522	0	372	38	13	
7	0	0	0	0	507	521	0	380	38	13	
8	0	0	0	0	505	519	0	382	38	13	
9	0	0	0	0	511	518	0	409	38	13	
10	0	0	0	0	506	517	0	423	38	13	
11	0	0	0	0	510	516	0	399	38	13	
12	0	0	0	0	505	515	0	403	38	13	
13	0	0	0	0	511	515	0	365	38	13	
14	0	0	0	0	508	513	0	319	38	13	
15	0	0	0	0	515	512	0	299	38	13	
0	0	0	0	0	507	510	0	283	38	13	
1	0	0	0	0	507	510	0	297	38	13	
2	0	0	0	0	503	509	0	309	38	13	
3	0	0	0	0	510	508	0	320	38	13	
4	0	0	0	0	505	508	0	344	38	13	
5	0	0	0	0	504	507	0	399	38	13	
6	0	0	0	0	514	506	0	465	38	13	
7	0	0	0	0	504	505	0	523	38	13	
8	0	0	0	0	508	504	0	560	38	13	
9	0	0	0	0	509	503	0	557	38	13	
10	0	0	0	0	507	502	0	544	38	13	
11	0	0	0	0	516	500	0	513	38	13	
12	0	0	0	0	514	499	0	483	38	13	
13	0	0	0	0	508	497	0	470	38	13	
14	0	0	0	0	512	496	0	473	38	13	
15	0	0	0	0	505	497	0	507	38	13	
0	0	0	0	0	506	496	0	541	38	13	
1	0	0	0	0	503	496	0	544	38	13	
2	0	0	0	0	510	496	0	527	38	13	
3	0	0	0	0	503	496	0	512	38	13	
4	0	0	0	0	511	495	0	493	38	13	
5	0	0	0	0	506	494	0	455	38	13	
6	0	0	0	0	510	494	0	396	38	13	
7	0	0	0	0	504	492	0	352	38	13	
8	0	0	0	0	514	491	0	331	38	13	
9	0	0	0	0	506	490	0	323	38	13	
10	0	0	0	0	512	489	0	332	38	13	
11	0	0	0	0	508	489	0	317	38	13	
12	0	0	0	0	507	488	0	332	38	13	
13	0	0	0	0	507	487	0	353	38	13	
14	0	0	0	0	514	487	0	369	38	13	
15	0	0	0	0	511	488	0	377	38	13	
0	0	0	0	0	512	491	0	364	38	13	
1	0	0	0	0	512	492	0	366	38	13	
2	0	0	0	0	508	491	0	396	38	13	
3	0	0	0	0	507	489	0	466	38	13	
4	0	0	0	0	509	488	0	480	38	13	
5	0	0	0	0	511	488	0	474	38	13	
6	0	0	0	0	505	488	0	492	38	13	
7	0	0	0	0	509	490	0	508	38	13	
8	0	0	0	0	510	494	0	536	38	13	
9	0	0	0	0	504	495	0	556	38	13	
10	0	0	0	0	508	494	0	567	38	13	
11	0	0	0	0	510	494	0	557	38	13	
12	0	0	0	0	502	495	0	513	38	13	
13	0	0	0	0	503	494	0	503	38	13	
14	0	0	0	0	514	495	0	533	38	13	
15	0	0	0	0	513	498	0	538	38	13	
0	0	0	0	0	513	498	0	553	38	13	
1	0	0	0	0	508	497	0	588	38	13	
2	0	0	0	0	509	499	0	648	38	13	
3	0	0	0	0	507	501	0	703	38	13	
4	0	0	0	0	501	501	0	707	38	13	
5	0	0	0	0	505	502	0	698	38	13	
6	0	0	0	0	510	502	0	699	38	13	
7	0	0	0	0	508	500	0	705	38	13	
8	0	0	0	0	510	498	0	706	38	13	
9	0	0	0	0	510	497	0	689	38	13	
10	0	0	0	0	517	497	0	654	38	13	
11	0	0	0	0	506	497	0	628	38	13	
12	0	0	0	0	512	497	0	618	38	13	
13	0	0	0	0	509	497	0	603	38	13	
14	0	0	0	0	505	497	0	554	38	13	
15	0	0	0	0	510	497	0	515	38	13	
0	0	0	0	0	508	498	0	515	38	13	
1	0	0	0	0	508	499	0	562	38	13	
2	0	0	0	0	505	499	0	614	38	13	
3	0	0	0	0	504	500	0	624	38	13	
4	0	0	0	0	510	500	0	601	38	13	
5	0	0	0	0	513	501	0	566	38	13	
6	0	0	0	0	507	501	0	560	38	13	
7	0	0	0	0	511	501	0	541	38	13	
8	0	0	0	0	510	502	0	533	38	13	
9	0	0	0	0	514	503	0	526	38	13	
10	0	0	0	0	516	504	0	529	38	13	
11	0	0	0	0	508	504	0	543	38	13	
12	0	0	0	0	506	504	0	529	38	13	
13	0	0	0	0	511	504	0	503	38	13	
14	0	0	0	0	514	504	0	458	38	13	
15	0	0	0	0	510	504	0	401	38	13	
0	0	0	0	0	507	504	0	383	38	13	
1	0	0	0	0	511	505	0	398	38	13	
2	0	0	0	0	507	505	0	425	38	13	
3	0	0	0	0	513	506	0	452	38	13	
4	0	0	0	0	504	506	0	418	38	13	
5	0	0	0	0	508	507	0	376	38	13	
6	0	0	0	0	509	507	0	358	38	13	
7	0	0	0	0	509	507	0	333	38	13	
8	0	0	0	0	505	507	0	303	38	13	
9	0	0	0	0	506	507	0	289	38	13	
