# OpenSignals Text File Format. Version 1
# {"98:D3:41:FD:4F:0D": {"position": 0, "device": "bitalino_rev", "device name": "98:D3:41:FD:4F:0D", "device connection": "BTH98:D3:41:FD:4F:0D", "sampling rate": 1000, "resolution": [4, 1, 1, 1, 1, 10, 10, 10, 10, 6, 6], "firmware version": 1282, "comments": "", "keywords": "", "mode": 0, "sync interval": 2, "date": "2024-4-12", "time": "10:30:33.539", "channels": [1, 2, 3, 4, 5, 6], "sensor": ["EMGBITREV", "ECGBIT", "EMGBITREV", "EMGBITREV", "EMGBITREV", "EMGBITREV"], "label": ["A1", "A2", "A3", "A4", "A5", "A6"], "column": ["nSeq", "I1", "I2", "O1", "O2", "A1", "A2", "A3", "A4", "A5", "A6"], "special": [{}, {}, {}, {}, {}, {}], "digital IO": [0, 0, 1, 1], "convertedValues": 0}}
# EndOfHeader
0	0	0	0	0	500	508	0	545	39	8	
1	0	0	0	0	502	507	0	543	38	8	
2	0	0	0	0	503	505	0	543	39	8	
3	0	0	0	0	503	507	0	541	39	9	
4	0	0	0	0	503	507	0	539	39	9	
5	0	0	0	0	505	505	0	547	39	9	
6	0	0	0	0	507	506	0	553	39	9	
7	0	0	0	0	505	507	0	552	39	9	
8	0	0	0	0	505	509	0	543	39	8	
9	0	0	0	0	504	509	0	537	38	8	
10	0	0	0	0	507	508	0	535	39	8	
11	0	0	0	0	508	508	0	533	39	8	
12	0	0	0	0	508	509	0	534	39	9	
13	0	0	0	0	509	508	0	536	39	9	
14	0	0	0	0	508	508	0	536	39	9	
15	0	0	0	0	504	507	0	536	39	9	
0	0	0	0	0	503	505	0	535	39	8	
1	0	0	0	0	498	505	0	532	38	8	
2	0	0	0	0	499	504	0	531	39	8	
3	0	0	0	0	498	504	0	532	39	8	
4	0	0	0	0	500	504	0	534	39	9	
5	0	0	0	0	501	504	0	542	39	9	
6	0	0	0	0	503	508	0	540	39	9	
7	0	0	0	0	504	507	0	540	39	9	
8	0	0	0	0	502	505	0	536	39	9	
9	0	0	0	0	504	506	0	532	38	9	
10	0	0	0	0	505	505	0	533	39	8	
11	0	0	0	0	506	506	0	534	39	8	
12	0	0	0	0	507	508	0	536	39	9	
13	0	0	0	0	508	507	0	534	39	9	
14	0	0	0	0	509	506	0	543	39	9	
15	0	0	0	0	505	505	0	560	39	9	
0	0	0	0	0	500	507	0	576	39	9	
1	0	0	0	0	499	507	0	597	38	9	
2	0	0	0	0	502	507	0	604	39	8	
3	0	0	0	0	501	507	0	606	39	8	
4	0	0	0	0	501	506	0	619	39	8	
5	0	0	0	0	502	508	0	615	39	9	
6	0	0	0	0	504	507	0	622	39	9	
7	0	0	0	0	504	508	0	614	39	9	
8	0	0	0	0	506	507	0	608	39	9	
9	0	0	0	0	502	507	0	610	38	8	
10	0	0	0	0	504	507	0	604	39	8	
11	0	0	0	0	506	508	0	611	39	8	
12	0	0	0	0	509	508	0	610	39	8	
13	0	0	0	0	510	508	0	604	39	9	
14	0	0	0	0	508	506	0	598	39	9	
15	0	0	0	0	511	506	0	607	39	9	
0	0	0	0	0	505	506	0	604	39	9	
1	0	0	0	0	501	506	0	599	38	9	
2	0	0	0	0	499	505	0	593	39	8	
3	0	0	0	0	501	505	0	588	39	8	
4	0	0	0	0	501	507	0	581	39	8	
5	0	0	0	0	503	508	0	566	39	8	
6	0	0	0	0	503	508	0	550	39	9	
7	0	0	0	0	504	506	0	548	39	9	
8	0	0	0	0	504	506	0	546	39	9	
9	0	0	0	0	504	506	0	544	38	9	
10	0	0	0	0	505	507	0	535	39	9	
11	0	0	0	0	504	507	0	530	39	8	
12	0	0	0	0	507	507	0	524	39	8	
13	0	0	0	0	509	509	0	522	39	8	
14	0	0	0	0	510	508	0	522	39	9	
15	0	0	0	0	508	509	0	521	39	9	
0	0	0	0	0	506	508	0	516	39	9	
1	0	0	0	0	504	507	0	513	38	9	
2	0	0	0	0	502	506	0	514	39	9	
3	0	0	0	0	500	506	0	514	39	8	
4	0	0	0	0	500	507	0	514	39	8	
5	0	0	0	0	502	507	0	515	39	8	
6	0	0	0	0	503	506	0	517	39	9	
7	0	0	0	0	503	504	0	517	39	9	
8	0	0	0	0	505	505	0	513	39	9	
9	0	0	0	0	505	505	0	509	38	9	
10	0	0	0	0	504	505	0	507	39	9	
11	0	0	0	0	501	504	0	509	39	9	
12	0	0	0	0	504	503	0	512	39	8	
13	0	0	0	0	504	503	0	515	39	8	
14	0	0	0	0	507	504	0	517	39	9	
15	0	0	0	0	507	504	0	516	39	9	
0	0	0	0	0	509	506	0	527	39	9	
1	0	0	0	0	507	506	0	550	38	9	
2	0	0	0	0	505	504	0	558	39	9	
3	0	0	0	0	501	504	0	553	39	9	
4	0	0	0	0	501	504	0	543	39	8	
5	0	0	0	0	500	504	0	537	39	8	
6	0	0	0	0	500	505	0	537	39	9	
7	0	0	0	0	504	504	0	561	39	9	
8	0	0	0	0	505	505	0	563	39	9	
9	0	0	0	0	506	505	0	555	38	9	
10	0	0	0	0	506	507	0	547	39	9	
11	0	0	0	0	503	508	0	540	39	9	
12	0	0	0	0	504	508	0	534	39	9	
13	0	0	0	0	505	507	0	531	39	8	
14	0	0	0	0	506	507	0	527	39	8	
15	0	0	0	0	505	507	0	524	39	9	
0	0	0	0	0	509	506	0	518	39	9	
1	0	0	0	0	510	506	0	514	38	9	
2	0	0	0	0	504	504	0	514	39	9	
3	0	0	0	0	502	503	0	516	39	9	
4	0	0	0	0	501	502	0	531	39	9	
5	0	0	0	0	500	503	0	556	39	8	
6	0	0	0	0	497	503	0	562	39	8	
7	0	0	0	0	497	505	0	555	39	9	
8	0	0	0	0	500	506	0	545	39	9	
9	0	0	0	0	505	505	0	536	38	9	
10	0	0	0	0	502	504	0	529	39	9	
11	0	0	0	0	503	503	0	528	39	9	
12	0	0	0	0	504	503	0	549	39	9	
13	0	0	0	0	503	502	0	562	39	8	
14	0	0	0	0	505	502	0	557	39	8	
15	0	0	0	0	507	502	0	553	39	8	
0	0	0	0	0	508	503	0	529	39	9	
1	0	0	0	0	510	504	0	519	38	9	
2	0	0	0	0	510	503	0	531	39	9	
3	0	0	0	0	506	501	0	548	39	9	
4	0	0	0	0	502	502	0	551	39	9	
5	0	0	0	0	502	503	0	547	39	9	
6	0	0	0	0	502	503	0	561	39	8	
7	0	0	0	0	503	504	0	565	38	8	
8	0	0	0	0	502	504	0	554	39	9	
9	0	0	0	0	505	504	0	538	38	9	
10	0	0	0	0	504	503	0	526	39	9	
11	0	0	0	0	506	504	0	519	39	9	
12	0	0	0	0	504	504	0	513	38	9	
13	0	0	0	0	505	507	0	511	39	9	
14	0	0	0	0	504	507	0	510	38	8	
15	0	0	0	0	507	507	0	511	39	8	
0	0	0	0	0	510	507	0	508	39	9	
1	0	0	0	0	510	506	0	506	38	9	
2	0	0	0	0	509	504	0	508	39	9	
3	0	0	0	0	508	504	0	508	39	9	
4	0	0	0	0	504	504	0	512	39	9	
5	0	0	0	0	499	504	0	515	39	9	
6	0	0	0	0	497	505	0	535	39	9	
7	0	0	0	0	498	505	0	552	39	9	
8	0	0	0	0	498	505	0	552	39	8	
9	0	0	0	0	502	506	0	544	38	9	
10	0	0	0	0	504	508	0	535	39	9	
11	0	0	0	0	503	509	0	528	39	9	
12	0	0	0	0	505	509	0	525	39	9	
13	0	0	0	0	505	508	0	541	39	9	
14	0	0	0	0	503	506	0	523	39	9	
15	0	0	0	0	506	507	0	524	39	8	
0	0	0	0	0	506	506	0	539	39	8	
1	0	0	0	0	509	506	0	555	38	9	
2	0	0	0	0	508	507	0	564	39	9	
3	0	0	0	0	510	505	0	582	39	9	
4	0	0	0	0	508	505	0	585	39	9	
5	0	0	0	0	503	505	0	591	39	9	
6	0	0	0	0	500	505	0	600	39	9	
7	0	0	0	0	499	506	0	595	39	9	
8	0	0	0	0	503	505	0	602	39	8	
9	0	0	0	0	504	504	0	596	38	9	
10	0	0	0	0	504	505	0	595	39	9	
11	0	0	0	0	502	506	0	598	39	9	
12	0	0	0	0	507	505	0	592	39	9	
13	0	0	0	0	505	505	0	600	39	9	
14	0	0	0	0	504	506	0	593	39	9	
15	0	0	0	0	503	505	0	593	39	9	
0	0	0	0	0	508	508	0	595	39	9	
1	0	0	0	0	509	508	0	588	38	9	
2	0	0	0	0	506	508	0	599	39	9	
3	0	0	0	0	506	509	0	586	39	9	
4	0	0	0	0	507	509	0	586	39	9	
5	0	0	0	0	503	509	0	591	39	9	
6	0	0	0	0	501	510	0	584	39	9	
7	0	0	0	0	499	511	0	593	39	9	
8	0	0	0	0	500	511	0	585	39	8	
9	0	0	0	0	501	512	0	585	38	9	
10	0	0	0	0	504	510	0	584	39	9	
11	0	0	0	0	502	510	0	576	39	9	
12	0	0	0	0	505	510	0	584	39	9	
13	0	0	0	0	504	510	0	582	39	9	
14	0	0	0	0	504	511	0	591	39	9	
15	0	0	0	0	502	510	0	584	39	9	
0	0	0	0	0	504	508	0	574	39	8	
1	0	0	0	0	508	507	0	566	38	9	
2	0	0	0	0	508	508	0	560	39	9	
3	0	0	0	0	505	505	0	558	39	9	
4	0	0	0	0	507	508	0	556	39	9	
5	0	0	0	0	506	508	0	548	39	9	
6	0	0	0	0	501	507	0	533	39	9	
7	0	0	0	0	499	508	0	519	39	9	
8	0	0	0	0	502	505	0	507	39	8	
9	0	0	0	0	502	505	0	499	38	9	
10	0	0	0	0	498	505	0	494	39	9	
11	0	0	0	0	501	506	0	493	39	9	
12	0	0	0	0	506	507	0	492	39	9	
13	0	0	0	0	504	506	0	491	39	9	
14	0	0	0	0	504	507	0	502	39	9	
15	0	0	0	0	506	505	0	526	39	9	
0	0	0	0	0	503	509	0	531	39	9	
1	0	0	0	0	503	510	0	546	39	8	
2	0	0	0	0	507	509	0	553	39	9	
3	0	0	0	0	510	510	0	550	39	9	
4	0	0	0	0	509	510	0	546	39	9	
5	0	0	0	0	508	508	0	540	39	9	
6	0	0	0	0	505	509	0	543	39	9	
7	0	0	0	0	500	508	0	526	39	9	
8	0	0	0	0	502	512	0	514	39	9	
9	0	0	0	0	499	510	0	502	38	8	
10	0	0	0	0	498	508	0	495	39	9	
11	0	0	0	0	498	508	0	489	39	9	
12	0	0	0	0	501	509	0	487	39	9	
13	0	0	0	0	502	508	0	498	39	9	
14	0	0	0	0	504	507	0	521	39	9	
15	0	0	0	0	504	508	0	526	38	9	
0	0	0	0	0	503	506	0	541	38	9	
1	0	0	0	0	505	507	0	548	38	8	
2	0	0	0	0	507	507	0	550	38	9	
3	0	0	0	0	508	507	0	550	39	9	
4	0	0	0	0	508	506	0	547	39	9	
5	0	0	0	0	509	506	0	535	39	9	
6	0	0	0	0	508	504	0	520	38	9	
7	0	0	0	0	504	504	0	509	39	9	
8	0	0	0	0	499	506	0	501	38	9	
9	0	0	0	0	497	508	0	497	38	9	
10	0	0	0	0	500	508	0	492	39	9	
11	0	0	0	0	502	505	0	490	39	9	
12	0	0	0	0	500	505	0	487	39	9	
13	0	0	0	0	504	505	0	489	39	9	
14	0	0	0	0	506	505	0	484	39	9	
15	0	0	0	0	506	507	0	483	39	9	
0	0	0	0	0	504	505	0	479	38	9	
1	0	0	0	0	505	505	0	477	38	9	
2	0	0	0	0	504	507	0	476	39	8	
3	0	0	0	0	505	508	0	480	39	9	
4	0	0	0	0	509	508	0	480	39	9	
5	0	0	0	0	508	509	0	481	39	9	
6	0	0	0	0	508	509	0	486	39	9	
7	0	0	0	0	507	507	0	483	39	9	
8	0	0	0	0	503	507	0	483	39	9	
9	0	0	0	0	502	507	0	476	38	9	
10	0	0	0	0	500	505	0	475	39	9	
11	0	0	0	0	498	506	0	479	39	9	
12	0	0	0	0	498	505	0	480	39	9	
13	0	0	0	0	501	505	0	485	39	9	
14	0	0	0	0	505	506	0	485	39	9	
15	0	0	0	0	504	506	0	487	39	9	
0	0	0	0	0	505	507	0	487	39	9	
1	0	0	0	0	506	505	0	482	38	9	
2	0	0	0	0	502	504	0	484	39	9	
3	0	0	0	0	508	505	0	485	39	9	
4	0	0	0	0	507	505	0	488	39	9	
5	0	0	0	0	506	505	0	490	39	9	
6	0	0	0	0	507	506	0	491	39	9	
7	0	0	0	0	505	508	0	493	39	9	
8	0	0	0	0	506	508	0	490	39	9	
9	0	0	0	0	502	508	0	489	38	9	
10	0	0	0	0	500	508	0	489	39	9	
11	0	0	0	0	500	508	0	489	39	9	
12	0	0	0	0	500	509	0	493	39	9	
13	0	0	0	0	498	508	0	494	39	9	
14	0	0	0	0	502	508	0	495	39	9	
15	0	0	0	0	505	510	0	493	39	9	
0	0	0	0	0	504	508	0	487	39	9	
1	0	0	0	0	504	508	0	484	38	9	
2	0	0	0	0	506	508	0	483	39	9	
3	0	0	0	0	503	506	0	484	39	9	
4	0	0	0	0	506	507	0	487	39	9	
5	0	0	0	0	507	508	0	490	39	9	
6	0	0	0	0	507	508	0	493	39	9	
7	0	0	0	0	508	508	0	492	39	9	
8	0	0	0	0	509	508	0	493	39	9	
9	0	0	0	0	506	508	0	492	38	9	
10	0	0	0	0	501	508	0	492	39	9	
11	0	0	0	0	501	507	0	495	39	9	
12	0	0	0	0	499	507	0	498	39	9	
13	0	0	0	0	501	508	0	518	39	9	
14	0	0	0	0	502	506	0	537	39	9	
15	0	0	0	0	502	506	0	545	39	9	
0	0	0	0	0	504	504	0	563	39	9	
1	0	0	0	0	506	505	0	567	38	9	
2	0	0	0	0	503	507	0	574	39	9	
3	0	0	0	0	503	507	0	580	39	9	
4	0	0	0	0	507	506	0	575	39	9	
5	0	0	0	0	507	507	0	583	39	9	
6	0	0	0	0	509	508	0	578	39	9	
7	0	0	0	0	509	506	0	579	39	9	
8	0	0	0	0	510	506	0	579	39	9	
9	0	0	0	0	508	506	0	563	38	9	
10	0	0	0	0	502	506	0	546	39	9	
11	0	0	0	0	500	508	0	530	39	9	
12	0	0	0	0	500	506	0	518	39	9	
13	0	0	0	0	499	506	0	522	39	9	
14	0	0	0	0	500	506	0	540	39	9	
15	0	0	0	0	502	506	0	544	39	9	
0	0	0	0	0	504	507	0	559	39	9	
1	0	0	0	0	505	508	0	567	38	9	
2	0	0	0	0	504	507	0	568	39	9	
3	0	0	0	0	505	505	0	575	39	9	
4	0	0	0	0	504	504	0	568	39	9	
5	0	0	0	0	505	503	0	573	39	9	
6	0	0	0	0	505	504	0	573	39	9	
7	0	0	0	0	509	504	0	568	39	9	
8	0	0	0	0	507	504	0	576	39	9	
9	0	0	0	0	510	504	0	568	38	9	
10	0	0	0	0	510	504	0	572	39	9	
11	0	0	0	0	504	504	0	569	39	9	
12	0	0	0	0	500	505	0	552	39	9	
13	0	0	0	0	499	506	0	534	39	9	
14	0	0	0	0	502	506	0	518	39	9	
15	0	0	0	0	501	507	0	504	39	9	
0	0	0	0	0	501	506	0	495	39	9	
1	0	0	0	0	505	505	0	487	38	9	
2	0	0	0	0	507	506	0	486	39	9	
3	0	0	0	0	505	505	0	483	39	9	
4	0	0	0	0	507	505	0	481	39	9	
5	0	0	0	0	504	506	0	483	39	9	
6	0	0	0	0	506	505	0	483	39	9	
7	0	0	0	0	506	505	0	483	39	9	
8	0	0	0	0	506	505	0	482	39	9	
9	0	0	0	0	508	505	0	477	38	9	
10	0	0	0	0	506	504	0	475	39	9	
11	0	0	0	0	503	505	0	480	39	9	
12	0	0	0	0	500	503	0	479	39	9	
13	0	0	0	0	500	503	0	483	39	9	
14	0	0	0	0	500	505	0	482	39	9	
15	0	0	0	0	498	505	0	480	39	9	
0	0	0	0	0	498	506	0	476	39	9	
1	0	0	0	0	504	505	0	469	38	9	
2	0	0	0	0	505	506	0	471	39	9	
3	0	0	0	0	505	507	0	473	39	9	
4	0	0	0	0	503	507	0	475	39	9	
5	0	0	0	0	502	507	0	483	39	9	
6	0	0	0	0	504	507	0	480	39	9	
7	0	0	0	0	505	506	0	483	39	9	
8	0	0	0	0	505	506	0	477	39	9	
9	0	0	0	0	511	506	0	475	38	9	
10	0	0	0	0	508	506	0	478	39	9	
11	0	0	0	0	507	507	0	478	39	9	
12	0	0	0	0	501	506	0	483	39	9	
13	0	0	0	0	502	504	0	484	39	9	
14	0	0	0	0	500	505	0	487	39	9	
15	0	0	0	0	502	506	0	487	39	9	
0	0	0	0	0	501	506	0	483	39	9	
1	0	0	0	0	505	507	0	481	38	9	
2	0	0	0	0	505	508	0	480	39	9	
3	0	0	0	0	504	508	0	480	39	9	
4	0	0	0	0	504	508	0	485	39	9	
5	0	0	0	0	504	508	0	487	39	9	
6	0	0	0	0	504	508	0	492	39	9	
7	0	0	0	0	506	507	0	492	39	9	
8	0	0	0	0	507	508	0	492	38	9	
9	0	0	0	0	506	508	0	490	38	9	
10	0	0	0	0	509	504	0	489	39	9	
11	0	0	0	0	508	505	0	492	39	9	
12	0	0	0	0	505	506	0	493	39	9	
13	0	0	0	0	499	505	0	492	39	9	
14	0	0	0	0	501	505	0	494	39	9	
15	0	0	0	0	499	504	0	493	39	9	
0	0	0	0	0	500	504	0	490	39	9	
1	0	0	0	0	499	503	0	488	38	9	
2	0	0	0	0	502	504	0	506	39	9	
3	0	0	0	0	503	505	0	529	39	9	
4	0	0	0	0	505	506	0	532	39	9	
5	0	0	0	0	505	507	0	527	39	9	
6	0	0	0	0	505	508	0	519	39	9	
7	0	0	0	0	504	508	0	508	39	9	
8	0	0	0	0	506	508	0	512	39	9	
9	0	0	0	0	509	508	0	530	38	9	
10	0	0	0	0	507	506	0	535	39	9	
11	0	0	0	0	509	505	0	551	39	9	
12	0	0	0	0	508	504	0	557	39	9	
13	0	0	0	0	505	505	0	560	39	9	
14	0	0	0	0	500	505	0	570	39	9	
15	0	0	0	0	499	507	0	563	39	9	
0	0	0	0	0	499	508	0	568	39	9	
1	0	0	0	0	498	506	0	566	38	9	
2	0	0	0	0	500	507	0	564	39	9	
3	0	0	0	0	503	507	0	572	39	9	
4	0	0	0	0	506	507	0	564	39	9	
5	0	0	0	0	506	508	0	569	39	9	
6	0	0	0	0	504	510	0	568	39	9	
7	0	0	0	0	504	510	0	563	39	9	
8	0	0	0	0	505	508	0	568	39	9	
9	0	0	0	0	507	508	0	558	38	9	
10	0	0	0	0	507	507	0	560	39	9	
11	0	0	0	0	509	506	0	558	39	9	
12	0	0	0	0	508	507	0	553	39	9	
13	0	0	0	0	509	507	0	561	39	9	
14	0	0	0	0	502	507	0	560	39	9	
15	0	0	0	0	501	506	0	568	39	9	
0	0	0	0	0	500	508	0	568	39	9	
1	0	0	0	0	502	508	0	549	39	9	
2	0	0	0	0	500	508	0	530	39	9	
3	0	0	0	0	505	508	0	514	39	9	
4	0	0	0	0	505	507	0	500	39	9	
5	0	0	0	0	504	507	0	493	39	9	
6	0	0	0	0	505	507	0	488	39	9	
7	0	0	0	0	504	505	0	483	39	9	
8	0	0	0	0	504	509	0	478	39	9	
9	0	0	0	0	507	508	0	470	38	9	
10	0	0	0	0	507	507	0	467	39	9	
11	0	0	0	0	508	508	0	468	39	9	
12	0	0	0	0	509	508	0	469	39	9	
13	0	0	0	0	508	505	0	474	39	9	
14	0	0	0	0	508	505	0	473	39	9	
15	0	0	0	0	502	507	0	474	39	9	
0	0	0	0	0	499	507	0	470	39	9	
1	0	0	0	0	500	507	0	465	38	9	
2	0	0	0	0	499	506	0	468	39	9	
3	0	0	0	0	498	507	0	469	39	9	
4	0	0	0	0	502	508	0	472	39	9	
5	0	0	0	0	504	506	0	476	39	9	
6	0	0	0	0	505	507	0	478	39	9	
7	0	0	0	0	504	507	0	479	39	9	
8	0	0	0	0	501	504	0	473	39	9	
9	0	0	0	0	504	504	0	470	38	9	
10	0	0	0	0	506	505	0	471	39	9	
11	0	0	0	0	508	506	0	470	39	9	
12	0	0	0	0	510	507	0	472	39	9	
13	0	0	0	0	511	508	0	477	39	9	
14	0	0	0	0	509	507	0	470	39	9	
15	0	0	0	0	505	507	0	473	39	9	
0	0	0	0	0	503	505	0	468	39	9	
1	0	0	0	0	502	505	0	466	38	9	
2	0	0	0	0	500	507	0	465	39	9	
3	0	0	0	0	500	506	0	467	39	9	
4	0	0	0	0	500	508	0	472	39	9	
5	0	0	0	0	500	507	0	472	39	9	
6	0	0	0	0	504	505	0	474	39	9	
7	0	0	0	0	503	508	0	472	39	9	
8	0	0	0	0	502	508	0	471	39	9	
9	0	0	0	0	504	509	0	470	38	9	
10	0	0	0	0	505	509	0	466	39	9	
11	0	0	0	0	508	509	0	472	39	9	
12	0	0	0	0	507	508	0	470	39	9	
13	0	0	0	0	506	507	0	469	39	9	
14	0	0	0	0	508	508	0	471	39	9	
15	0	0	0	0	507	507	0	470	39	9	
0	0	0	0	0	504	508	0	470	39	9	
1	0	0	0	0	502	509	0	463	38	9	
2	0	0	0	0	499	507	0	464	39	9	
3	0	0	0	0	499	507	0	468	39	9	
4	0	0	0	0	498	507	0	469	39	9	
5	0	0	0	0	501	507	0	481	39	9	
6	0	0	0	0	503	508	0	465	39	9	
7	0	0	0	0	505	506	0	464	39	9	
8	0	0	0	0	506	507	0	475	39	9	
9	0	0	0	0	503	505	0	501	38	9	
10	0	0	0	0	504	506	0	512	39	9	
11	0	0	0	0	506	506	0	533	39	9	
12	0	0	0	0	507	508	0	544	39	9	
13	0	0	0	0	507	507	0	535	39	9	
14	0	0	0	0	509	506	0	523	39	9	
15	0	0	0	0	510	505	0	512	39	9	
0	0	0	0	0	508	504	0	502	39	9	
1	0	0	0	0	503	504	0	495	38	9	
2	0	0	0	0	500	505	0	490	39	9	
3	0	0	0	0	499	506	0	486	39	9	
4	0	0	0	0	499	506	0	483	39	9	
5	0	0	0	0	502	507	0	476	39	9	
6	0	0	0	0	502	507	0	472	39	9	
7	0	0	0	0	505	509	0	468	39	9	
8	0	0	0	0	507	510	0	465	39	9	
9	0	0	0	0	505	509	0	465	38	9	
10	0	0	0	0	507	508	0	465	39	9	
11	0	0	0	0	505	507	0	469	39	9	
12	0	0	0	0	507	509	0	474	39	9	
13	0	0	0	0	508	508	0	475	39	9	
14	0	0	0	0	507	509	0	475	39	9	
15	0	0	0	0	508	508	0	471	39	9	
0	0	0	0	0	508	508	0	469	39	9	
1	0	0	0	0	504	507	0	471	38	9	
2	0	0	0	0	501	506	0	473	39	9	
3	0	0	0	0	500	507	0	481	39	9	
4	0	0	0	0	501	508	0	508	39	9	
5	0	0	0	0	500	507	0	524	39	9	
6	0	0	0	0	501	507	0	526	39	9	
7	0	0	0	0	503	505	0	520	39	9	
8	0	0	0	0	504	507	0	510	39	9	
9	0	0	0	0	504	506	0	506	38	9	
10	0	0	0	0	504	506	0	495	39	9	
11	0	0	0	0	504	505	0	496	39	9	
12	0	0	0	0	506	506	0	492	39	9	
13	0	0	0	0	508	505	0	489	39	9	
14	0	0	0	0	508	505	0	484	39	9	
15	0	0	0	0	508	505	0	483	39	9	
0	0	0	0	0	509	506	0	482	39	9	
1	0	0	0	0	507	504	0	478	38	9	
2	0	0	0	0	502	505	0	482	39	9	
3	0	0	0	0	502	506	0	487	39	9	
4	0	0	0	0	499	507	0	492	39	9	
5	0	0	0	0	499	504	0	496	39	9	
6	0	0	0	0	499	504	0	494	39	9	
7	0	0	0	0	501	505	0	496	39	9	
8	0	0	0	0	501	505	0	489	39	9	
9	0	0	0	0	502	504	0	487	38	9	
10	0	0	0	0	503	505	0	491	39	9	
11	0	0	0	0	506	505	0	493	39	9	
12	0	0	0	0	503	505	0	499	39	9	
13	0	0	0	0	505	507	0	500	39	9	
14	0	0	0	0	506	508	0	501	39	9	
15	0	0	0	0	508	507	0	503	39	9	
0	0	0	0	0	508	505	0	504	39	9	
1	0	0	0	0	510	504	0	513	38	9	
2	0	0	0	0	506	504	0	504	39	9	
3	0	0	0	0	500	506	0	504	39	9	
4	0	0	0	0	500	506	0	504	39	9	
5	0	0	0	0	497	505	0	503	39	9	
6	0	0	0	0	499	506	0	504	39	9	
7	0	0	0	0	500	505	0	505	39	9	
8	0	0	0	0	501	504	0	504	39	9	
9	0	0	0	0	502	504	0	504	38	9	
10	0	0	0	0	504	505	0	502	39	9	
11	0	0	0	0	504	506	0	503	39	9	
12	0	0	0	0	505	508	0	502	39	9	
13	0	0	0	0	503	507	0	500	39	9	
14	0	0	0	0	505	508	0	501	39	9	
15	0	0	0	0	508	508	0	500	39	9	
0	0	0	0	0	509	508	0	501	39	9	
1	0	0	0	0	511	508	0	502	38	9	
2	0	0	0	0	507	508	0	502	39	9	
3	0	0	0	0	504	509	0	502	39	9	
4	0	0	0	0	502	508	0	503	39	9	
5	0	0	0	0	501	507	0	504	39	9	
6	0	0	0	0	500	509	0	504	39	9	
7	0	0	0	0	500	509	0	504	39	9	
8	0	0	0	0	501	509	0	503	39	9	
9	0	0	0	0	502	508	0	504	38	9	
10	0	0	0	0	504	508	0	504	39	9	
11	0	0	0	0	505	508	0	504	39	9	
12	0	0	0	0	505	507	0	503	39	9	
13	0	0	0	0	504	506	0	515	39	9	
14	0	0	0	0	503	505	0	540	39	9	
15	0	0	0	0	505	505	0	549	39	9	
0	0	0	0	0	508	505	0	567	39	9	
1	0	0	0	0	507	506	0	574	38	9	
2	0	0	0	0	507	506	0	563	39	9	
3	0	0	0	0	505	505	0	547	39	9	
4	0	0	0	0	503	505	0	533	39	9	
5	0	0	0	0	500	505	0	519	39	9	
6	0	0	0	0	501	504	0	508	39	9	
7	0	0	0	0	500	505	0	502	39	9	
8	0	0	0	0	503	505	0	500	39	9	
9	0	0	0	0	500	505	0	498	38	9	
10	0	0	0	0	504	505	0	497	39	9	
11	0	0	0	0	504	504	0	497	39	9	
12	0	0	0	0	504	504	0	498	39	9	
13	0	0	0	0	502	504	0	496	39	9	
14	0	0	0	0	502	505	0	496	39	9	
15	0	0	0	0	505	507	0	497	39	9	
0	0	0	0	0	507	505	0	496	39	9	
1	0	0	0	0	510	505	0	498	38	9	
2	0	0	0	0	511	504	0	495	39	9	
3	0	0	0	0	510	503	0	496	39	9	
4	0	0	0	0	505	504	0	497	39	9	
5	0	0	0	0	502	504	0	496	39	9	
6	0	0	0	0	501	506	0	500	39	9	
7	0	0	0	0	499	505	0	499	39	9	
8	0	0	0	0	500	505	0	501	39	9	
9	0	0	0	0	501	504	0	505	38	9	
10	0	0	0	0	503	504	0	523	39	9	
11	0	0	0	0	503	504	0	544	39	9	
12	0	0	0	0	506	504	0	545	39	9	
13	0	0	0	0	503	506	0	540	39	9	
14	0	0	0	0	504	506	0	531	39	9	
15	0	0	0	0	506	504	0	521	39	9	
0	0	0	0	0	505	505	0	515	39	9	
1	0	0	0	0	508	504	0	508	38	9	
2	0	0	0	0	509	503	0	507	39	9	
3	0	0	0	0	508	504	0	504	39	9	
4	0	0	0	0	506	503	0	502	39	9	
5	0	0	0	0	506	503	0	504	39	9	
6	0	0	0	0	503	505	0	504	39	9	
7	0	0	0	0	501	505	0	505	39	9	
8	0	0	0	0	501	506	0	507	39	9	
9	0	0	0	0	503	505	0	507	38	9	
10	0	0	0	0	502	506	0	507	39	9	
11	0	0	0	0	502	506	0	506	39	9	
12	0	0	0	0	503	508	0	507	39	9	
13	0	0	0	0	505	508	0	508	39	9	
14	0	0	0	0	505	507	0	506	39	9	
15	0	0	0	0	504	506	0	505	39	9	
0	0	0	0	0	505	506	0	507	39	9	
1	0	0	0	0	507	506	0	507	38	9	
2	0	0	0	0	506	506	0	505	39	9	
3	0	0	0	0	505	505	0	505	39	9	
4	0	0	0	0	507	505	0	505	39	9	
5	0	0	0	0	507	507	0	507	39	9	
6	0	0	0	0	504	508	0	506	39	9	
7	0	0	0	0	499	508	0	506	39	9	
8	0	0	0	0	496	508	0	507	39	9	
9	0	0	0	0	497	506	0	505	38	9	
10	0	0	0	0	501	505	0	506	39	9	
11	0	0	0	0	502	506	0	506	39	9	
12	0	0	0	0	502	508	0	505	39	9	
13	0	0	0	0	506	508	0	504	39	9	
14	0	0	0	0	506	508	0	504	39	9	
15	0	0	0	0	505	505	0	504	39	9	
0	0	0	0	0	505	505	0	505	39	9	
1	0	0	0	0	506	507	0	506	38	9	
2	0	0	0	0	504	507	0	504	39	9	
3	0	0	0	0	504	507	0	504	39	9	
4	0	0	0	0	508	507	0	504	39	9	
5	0	0	0	0	507	508	0	504	39	9	
6	0	0	0	0	507	507	0	504	39	9	
7	0	0	0	0	503	508	0	505	39	9	
8	0	0	0	0	502	507	0	508	39	9	
9	0	0	0	0	500	507	0	507	38	9	
10	0	0	0	0	500	505	0	507	39	9	
11	0	0	0	0	502	505	0	508	39	9	
12	0	0	0	0	503	504	0	506	39	9	
13	0	0	0	0	502	506	0	506	39	9	
14	0	0	0	0	502	506	0	505	39	9	
15	0	0	0	0	507	505	0	507	39	9	
0	0	0	0	0	506	508	0	507	39	9	
1	0	0	0	0	507	508	0	508	38	9	
2	0	0	0	0	506	509	0	507	39	9	
3	0	0	0	0	506	508	0	506	39	9	
4	0	0	0	0	507	506	0	507	39	9	
5	0	0	0	0	509	508	0	506	39	9	
6	0	0	0	0	504	507	0	507	39	9	
7	0	0	0	0	504	507	0	519	39	9	
8	0	0	0	0	502	508	0	545	39	9	
9	0	0	0	0	501	508	0	553	38	9	
10	0	0	0	0	501	508	0	571	39	9	
11	0	0	0	0	500	510	0	576	39	9	
12	0	0	0	0	501	510	0	579	39	9	
13	0	0	0	0	504	508	0	596	39	9	
14	0	0	0	0	505	507	0	582	39	9	
15	0	0	0	0	504	508	0	587	39	9	
0	0	0	0	0	504	509	0	583	39	9	
1	0	0	0	0	504	506	0	578	38	9	
2	0	0	0	0	504	506	0	586	39	9	
3	0	0	0	0	507	507	0	579	39	9	
4	0	0	0	0	508	506	0	584	39	9	
5	0	0	0	0	508	509	0	580	39	9	
6	0	0	0	0	508	508	0	575	39	9	
7	0	0	0	0	508	508	0	584	39	9	
8	0	0	0	0	504	508	0	579	39	9	
9	0	0	0	0	502	509	0	583	38	9	
10	0	0	0	0	498	508	0	579	39	9	
11	0	0	0	0	501	507	0	572	39	9	
12	0	0	0	0	501	506	0	578	39	9	
13	0	0	0	0	501	506	0	573	39	9	
14	0	0	0	0	502	506	0	579	39	9	
15	0	0	0	0	505	506	0	579	39	9	
0	0	0	0	0	507	505	0	578	39	9	
1	0	0	0	0	505	504	0	584	38	9	
2	0	0	0	0	505	503	0	573	39	9	
3	0	0	0	0	507	502	0	554	39	9	
4	0	0	0	0	508	502	0	536	39	9	
5	0	0	0	0	507	503	0	521	39	9	
6	0	0	0	0	509	504	0	511	39	9	
7	0	0	0	0	510	503	0	505	39	9	
8	0	0	0	0	507	505	0	502	39	9	
9	0	0	0	0	502	503	0	500	38	9	
10	0	0	0	0	500	504	0	499	39	9	
11	0	0	0	0	497	503	0	501	39	9	
12	0	0	0	0	500	504	0	500	39	9	
13	0	0	0	0	500	507	0	499	39	9	
14	0	0	0	0	499	507	0	497	39	9	
15	0	0	0	0	503	506	0	496	39	9	
0	0	0	0	0	503	505	0	493	39	9	
1	0	0	0	0	504	505	0	492	38	9	
2	0	0	0	0	504	507	0	491	39	9	
3	0	0	0	0	504	506	0	491	39	9	
4	0	0	0	0	504	508	0	493	39	9	
5	0	0	0	0	505	509	0	491	39	9	
6	0	0	0	0	507	508	0	491	39	9	
7	0	0	0	0	509	507	0	490	39	9	
8	0	0	0	0	507	505	0	492	39	9	
9	0	0	0	0	505	505	0	494	38	9	
10	0	0	0	0	501	506	0	492	39	9	
11	0	0	0	0	501	507	0	496	39	9	
12	0	0	0	0	501	505	0	494	39	9	
13	0	0	0	0	498	504	0	493	39	9	
14	0	0	0	0	498	504	0	494	39	9	
15	0	0	0	0	502	504	0	495	39	9	
0	0	0	0	0	504	504	0	496	39	9	
1	0	0	0	0	505	504	0	496	38	9	
2	0	0	0	0	504	504	0	496	39	9	
3	0	0	0	0	502	504	0	495	39	9	
4	0	0	0	0	504	503	0	492	39	9	
5	0	0	0	0	507	504	0	494	39	9	
6	0	0	0	0	507	505	0	491	39	9	
7	0	0	0	0	507	506	0	491	39	9	
8	0	0	0	0	509	509	0	493	39	9	
9	0	0	0	0	509	508	0	496	38	9	
10	0	0	0	0	504	508	0	494	39	9	
11	0	0	0	0	502	507	0	492	39	9	
12	0	0	0	0	502	504	0	489	39	9	
13	0	0	0	0	499	505	0	490	39	9	
14	0	0	0	0	501	505	0	490	39	9	
15	0	0	0	0	502	505	0	490	39	9	
0	0	0	0	0	506	505	0	488	39	9	
1	0	0	0	0	505	505	0	484	38	9	
2	0	0	0	0	505	505	0	489	39	9	
3	0	0	0	0	503	506	0	483	39	9	
4	0	0	0	0	504	506	0	487	39	9	
5	0	0	0	0	504	507	0	486	39	9	
6	0	0	0	0	506	507	0	486	39	9	
7	0	0	0	0	508	510	0	489	39	9	
8	0	0	0	0	509	508	0	487	39	9	
9	0	0	0	0	508	506	0	491	38	9	
10	0	0	0	0	509	507	0	492	39	9	
11	0	0	0	0	504	506	0	492	39	9	
12	0	0	0	0	502	508	0	492	39	9	
13	0	0	0	0	499	509	0	496	39	9	
14	0	0	0	0	499	510	0	523	39	9	
15	0	0	0	0	500	509	0	534	39	9	
0	0	0	0	0	501	508	0	547	39	9	
1	0	0	0	0	501	506	0	560	38	9	
2	0	0	0	0	506	505	0	561	39	9	
3	0	0	0	0	503	507	0	572	39	9	
4	0	0	0	0	503	508	0	572	39	9	
5	0	0	0	0	505	508	0	575	39	9	
6	0	0	0	0	505	507	0	579	39	9	
7	0	0	0	0	506	506	0	575	39	9	
8	0	0	0	0	506	505	0	579	39	9	
9	0	0	0	0	508	507	0	569	38	9	
10	0	0	0	0	508	507	0	568	39	9	
11	0	0	0	0	506	507	0	569	39	9	
12	0	0	0	0	505	508	0	560	39	9	
13	0	0	0	0	502	509	0	568	39	9	
14	0	0	0	0	500	507	0	562	39	9	
15	0	0	0	0	499	507	0	563	39	9	
0	0	0	0	0	501	509	0	568	39	9	
1	0	0	0	0	503	508	0	562	38	9	
2	0	0	0	0	503	506	0	569	39	9	
3	0	0	0	0	503	508	0	560	39	9	
4	0	0	0	0	503	507	0	559	39	9	
5	0	0	0	0	504	507	0	567	39	9	
6	0	0	0	0	505	508	0	554	39	9	
7	0	0	0	0	507	508	0	537	39	9	
8	0	0	0	0	506	508	0	520	39	9	
9	0	0	0	0	506	508	0	506	38	9	
10	0	0	0	0	508	509	0	498	39	9	
11	0	0	0	0	509	507	0	491	39	9	
12	0	0	0	0	505	508	0	489	39	9	
13	0	0	0	0	500	507	0	486	39	9	
14	0	0	0	0	499	507	0	483	39	9	
15	0	0	0	0	497	507	0	483	39	9	
0	0	0	0	0	499	506	0	480	39	9	
1	0	0	0	0	502	505	0	483	38	9	
2	0	0	0	0	506	507	0	480	39	9	
3	0	0	0	0	506	505	0	480	39	9	
4	0	0	0	0	505	507	0	482	39	9	
5	0	0	0	0	504	506	0	483	39	9	
6	0	0	0	0	505	508	0	483	39	9	
7	0	0	0	0	508	509	0	483	39	9	
8	0	0	0	0	507	508	0	483	39	9	
9	0	0	0	0	508	505	0	485	38	9	
10	0	0	0	0	508	506	0	484	39	9	
11	0	0	0	0	505	506	0	484	39	9	
12	0	0	0	0	510	507	0	490	39	9	
13	0	0	0	0	501	506	0	482	39	9	
14	0	0	0	0	498	507	0	484	39	9	
15	0	0	0	0	500	507	0	483	39	9	
0	0	0	0	0	501	506	0	484	38	9	
1	0	0	0	0	503	506	0	486	38	9	
2	0	0	0	0	502	505	0	485	39	9	
3	0	0	0	0	506	505	0	495	39	9	
4	0	0	0	0	505	503	0	488	39	9	
5	0	0	0	0	504	504	0	492	39	9	
6	0	0	0	0	504	504	0	491	39	9	
7	0	0	0	0	503	503	0	490	39	9	
8	0	0	0	0	507	502	0	492	39	9	
9	0	0	0	0	505	501	0	491	38	9	
10	0	0	0	0	508	503	0	493	39	9	
11	0	0	0	0	508	504	0	492	39	9	
12	0	0	0	0	508	505	0	493	39	9	
13	0	0	0	0	504	507	0	493	39	9	
14	0	0	0	0	501	506	0	492	39	9	
15	0	0	0	0	499	505	0	494	39	9	
0	0	0	0	0	501	506	0	493	39	9	
1	0	0	0	0	499	505	0	496	38	9	
2	0	0	0	0	501	505	0	495	39	9	
3	0	0	0	0	502	504	0	495	39	9	
4	0	0	0	0	504	505	0	496	39	9	
5	0	0	0	0	504	506	0	496	39	9	
6	0	0	0	0	502	507	0	496	39	9	
7	0	0	0	0	501	507	0	497	39	9	
8	0	0	0	0	504	507	0	498	39	9	
9	0	0	0	0	506	507	0	500	38	9	
10	0	0	0	0	507	508	0	499	39	9	
11	0	0	0	0	508	507	0	501	39	9	
12	0	0	0	0	508	508	0	500	39	9	
13	0	0	0	0	508	508	0	501	39	9	
14	0	0	0	0	505	506	0	503	39	9	
15	0	0	0	0	503	507	0	502	39	9	
0	0	0	0	0	499	507	0	501	39	9	
1	0	0	0	0	501	508	0	502	38	9	
2	0	0	0	0	502	508	0	512	39	9	
3	0	0	0	0	502	508	0	538	39	9	
4	0	0	0	0	504	507	0	552	39	9	
5	0	0	0	0	503	507	0	566	39	9	
6	0	0	0	0	505	506	0	588	39	9	
7	0	0	0	0	505	505	0	592	39	9	
8	0	0	0	0	504	506	0	579	39	9	
9	0	0	0	0	506	506	0	581	38	9	
10	0	0	0	0	508	507	0	595	39	9	
11	0	0	0	0	508	507	0	591	39	9	
12	0	0	0	0	509	505	0	572	39	9	
13	0	0	0	0	505	505	0	582	39	9	
14	0	0	0	0	506	504	0	594	39	9	
15	0	0	0	0	503	504	0	581	39	9	
0	0	0	0	0	501	505	0	575	39	9	
1	0	0	0	0	501	505	0	584	38	9	
2	0	0	0	0	498	505	0	591	39	9	
3	0	0	0	0	500	506	0	576	39	9	
4	0	0	0	0	503	507	0	574	39	9	
5	0	0	0	0	504	508	0	586	39	9	
6	0	0	0	0	505	507	0	585	39	9	
7	0	0	0	0	506	506	0	573	39	9	
8	0	0	0	0	504	505	0	576	39	9	
9	0	0	0	0	506	504	0	591	38	9	
10	0	0	0	0	505	507	0	583	39	9	
11	0	0	0	0	509	507	0	570	39	9	
12	0	0	0	0	508	507	0	576	39	9	
13	0	0	0	0	508	508	0	587	39	9	
14	0	0	0	0	509	507	0	574	39	9	
15	0	0	0	0	506	507	0	556	39	9	
0	0	0	0	0	501	507	0	540	39	9	
1	0	0	0	0	499	506	0	523	38	9	
2	0	0	0	0	499	508	0	512	39	9	
3	0	0	0	0	501	508	0	504	39	9	
4	0	0	0	0	499	510	0	500	39	9	
5	0	0	0	0	501	508	0	499	39	9	
6	0	0	0	0	505	509	0	499	39	9	
7	0	0	0	0	505	508	0	500	39	9	
8	0	0	0	0	504	507	0	498	39	9	
9	0	0	0	0	503	507	0	499	38	9	
10	0	0	0	0	503	507	0	499	39	9	
11	0	0	0	0	504	507	0	498	39	9	
12	0	0	0	0	505	506	0	498	39	9	
13	0	0	0	0	506	507	0	496	39	9	
14	0	0	0	0	507	507	0	496	39	9	
15	0	0	0	0	507	507	0	493	39	9	
0	0	0	0	0	504	508	0	494	39	9	
1	0	0	0	0	502	508	0	494	38	9	
2	0	0	0	0	497	508	0	493	39	9	
3	0	0	0	0	499	507	0	500	39	9	
4	0	0	0	0	499	507	0	491	39	9	
5	0	0	0	0	498	507	0	492	39	9	
6	0	0	0	0	503	507	0	492	39	9	
7	0	0	0	0	503	506	0	492	39	9	
8	0	0	0	0	505	507	0	494	39	9	
9	0	0	0	0	503	505	0	494	38	9	
10	0	0	0	0	506	505	0	495	39	9	
11	0	0	0	0	505	505	0	494	39	9	
12	0	0	0	0	507	506	0	492	39	9	
13	0	0	0	0	508	509	0	493	39	9	
14	0	0	0	0	507	508	0	494	39	9	
15	0	0	0	0	508	507	0	495	39	9	
0	0	0	0	0	507	508	0	495	39	9	
1	0	0	0	0	504	507	0	495	38	9	
2	0	0	0	0	500	506	0	495	39	9	
3	0	0	0	0	499	507	0	495	39	9	
4	0	0	0	0	500	508	0	496	39	9	
5	0	0	0	0	498	508	0	496	39	9	
6	0	0	0	0	499	507	0	495	39	9	
7	0	0	0	0	500	504	0	495	39	9	
8	0	0	0	0	502	505	0	494	39	9	
9	0	0	0	0	507	504	0	496	38	9	
10	0	0	0	0	504	504	0	494	39	9	
11	0	0	0	0	506	504	0	492	39	9	
12	0	0	0	0	507	505	0	491	39	9	
13	0	0	0	0	507	505	0	490	39	9	
14	0	0	0	0	511	504	0	490	39	9	
15	0	0	0	0	508	504	0	491	39	9	
0	0	0	0	0	509	506	0	491	39	9	
1	0	0	0	0	507	505	0	492	38	9	
2	0	0	0	0	504	506	0	492	39	9	
3	0	0	0	0	500	506	0	492	39	9	
4	0	0	0	0	500	506	0	491	39	9	
5	0	0	0	0	500	505	0	508	39	9	
6	0	0	0	0	501	505	0	539	39	9	
7	0	0	0	0	499	505	0	553	39	9	
8	0	0	0	0	503	505	0	551	39	9	
9	0	0	0	0	504	504	0	558	38	9	
10	0	0	0	0	504	505	0	576	39	9	
11	0	0	0	0	504	508	0	570	39	9	
12	0	0	0	0	504	507	0	559	39	9	
13	0	0	0	0	506	507	0	567	39	9	
14	0	0	0	0	507	505	0	579	39	9	
15	0	0	0	0	505	505	0	567	39	9	
0	0	0	0	0	508	505	0	547	39	9	
1	0	0	0	0	507	506	0	532	38	9	
2	0	0	0	0	504	505	0	514	39	9	
3	0	0	0	0	499	507	0	501	39	9	
4	0	0	0	0	500	507	0	494	39	9	
5	0	0	0	0	499	507	0	491	39	9	
6	0	0	0	0	501	505	0	487	39	9	
7	0	0	0	0	499	507	0	487	39	9	
8	0	0	0	0	504	509	0	483	39	9	
9	0	0	0	0	506	509	0	483	38	9	
10	0	0	0	0	504	510	0	483	39	9	
11	0	0	0	0	506	509	0	482	39	9	
12	0	0	0	0	504	509	0	484	39	9	
13	0	0	0	0	505	507	0	483	39	9	
14	0	0	0	0	506	507	0	481	39	9	
15	0	0	0	0	507	504	0	479	39	9	
0	0	0	0	0	505	505	0	480	39	9	
1	0	0	0	0	508	505	0	485	38	9	
2	0	0	0	0	508	506	0	508	39	9	
3	0	0	0	0	506	505	0	539	39	9	
4	0	0	0	0	499	507	0	544	39	9	
5	0	0	0	0	500	504	0	533	39	9	
6	0	0	0	0	499	505	0	519	39	9	
7	0	0	0	0	501	505	0	508	39	9	
8	0	0	0	0	502	504	0	497	39	9	
9	0	0	0	0	503	505	0	491	38	9	
10	0	0	0	0	504	505	0	486	39	9	
11	0	0	0	0	505	506	0	487	39	9	
12	0	0	0	0	504	505	0	483	39	9	
13	0	0	0	0	503	506	0	481	39	9	
14	0	0	0	0	507	506	0	481	39	9	
15	0	0	0	0	503	506	0	481	39	9	
0	0	0	0	0	507	506	0	482	39	9	
1	0	0	0	0	509	505	0	480	38	9	
2	0	0	0	0	508	506	0	480	39	9	
3	0	0	0	0	508	507	0	480	39	9	
4	0	0	0	0	503	506	0	476	39	9	
5	0	0	0	0	500	506	0	478	39	9	
6	0	0	0	0	500	505	0	474	39	9	
7	0	0	0	0	501	505	0	474	39	9	
8	0	0	0	0	501	505	0	477	39	9	
9	0	0	0	0	502	504	0	475	38	9	
10	0	0	0	0	505	503	0	477	39	9	
11	0	0	0	0	504	503	0	472	39	9	
12	0	0	0	0	504	503	0	473	39	9	
13	0	0	0	0	502	504	0	472	39	9	
14	0	0	0	0	503	505	0	471	39	9	
15	0	0	0	0	503	507	0	475	39	9	
0	0	0	0	0	507	507	0	474	39	9	
1	0	0	0	0	509	507	0	491	38	9	
2	0	0	0	0	509	508	0	475	39	9	
3	0	0	0	0	509	507	0	473	39	9	
4	0	0	0	0	504	508	0	477	39	9	
5	0	0	0	0	502	509	0	476	39	9	
6	0	0	0	0	500	509	0	476	39	9	
7	0	0	0	0	500	510	0	478	39	9	
8	0	0	0	0	499	510	0	477	39	9	
9	0	0	0	0	501	508	0	479	38	9	
10	0	0	0	0	504	507	0	476	39	9	
11	0	0	0	0	502	507	0	477	39	9	
12	0	0	0	0	504	507	0	478	39	9	
13	0	0	0	0	504	508	0	478	39	9	
14	0	0	0	0	504	506	0	478	39	9	
15	0	0	0	0	504	506	0	477	39	9	
0	0	0	0	0	505	505	0	479	39	9	
1	0	0	0	0	507	505	0	480	38	9	
2	0	0	0	0	505	505	0	479	39	9	
3	0	0	0	0	509	507	0	479	39	9	
4	0	0	0	0	508	508	0	478	39	9	
5	0	0	0	0	502	507	0	478	39	9	
6	0	0	0	0	501	508	0	478	39	9	
7	0	0	0	0	499	507	0	476	39	9	
8	0	0	0	0	499	506	0	480	39	9	
9	0	0	0	0	501	506	0	478	38	9	
10	0	0	0	0	504	508	0	499	39	9	
11	0	0	0	0	504	507	0	529	39	9	
12	0	0	0	0	505	507	0	542	39	9	
13	0	0	0	0	503	507	0	538	39	9	
14	0	0	0	0	504	507	0	547	39	9	
15	0	0	0	0	504	508	0	565	39	9	
0	0	0	0	0	504	507	0	559	39	9	
1	0	0	0	0	506	505	0	548	38	9	
2	0	0	0	0	507	509	0	555	39	9	
3	0	0	0	0	511	508	0	566	39	9	
4	0	0	0	0	509	507	0	552	39	9	
5	0	0	0	0	507	505	0	545	39	9	
6	0	0	0	0	500	504	0	556	39	9	
7	0	0	0	0	499	504	0	563	39	9	
8	0	0	0	0	500	505	0	547	39	9	
9	0	0	0	0	502	505	0	544	38	9	
10	0	0	0	0	499	508	0	557	39	9	
11	0	0	0	0	503	509	0	571	39	9	
12	0	0	0	0	505	508	0	542	39	9	
13	0	0	0	0	503	505	0	546	39	9	
14	0	0	0	0	504	503	0	558	39	9	
15	0	0	0	0	504	504	0	549	39	9	
0	0	0	0	0	504	505	0	530	39	9	
1	0	0	0	0	506	505	0	511	38	9	
2	0	0	0	0	509	507	0	496	39	9	
3	0	0	0	0	508	506	0	484	39	9	
4	0	0	0	0	509	507	0	490	39	9	
5	0	0	0	0	508	508	0	515	39	9	
6	0	0	0	0	505	506	0	519	39	9	
7	0	0	0	0	501	506	0	535	39	9	
8	0	0	0	0	499	506	0	545	38	9	
9	0	0	0	0	500	505	0	535	38	9	
10	0	0	0	0	499	505	0	520	38	9	
11	0	0	0	0	499	504	0	506	38	9	
12	0	0	0	0	504	505	0	495	39	9	
13	0	0	0	0	504	505	0	486	39	9	
14	0	0	0	0	507	506	0	480	38	9	
15	0	0	0	0	505	506	0	475	38	9	
0	0	0	0	0	503	508	0	475	38	9	
1	0	0	0	0	504	509	0	473	38	9	
2	0	0	0	0	506	510	0	469	38	9	
3	0	0	0	0	508	511	0	471	38	9	
4	0	0	0	0	508	511	0	472	38	9	
5	0	0	0	0	507	510	0	475	39	9	
6	0	0	0	0	508	508	0	476	38	9	
7	0	0	0	0	505	508	0	476	38	9	
8	0	0	0	0	502	508	0	479	38	9	
9	0	0	0	0	499	506	0	479	38	9	
10	0	0	0	0	499	505	0	480	38	9	
11	0	0	0	0	501	507	0	480	38	9	
12	0	0	0	0	503	508	0	480	38	9	
13	0	0	0	0	503	508	0	483	39	9	
14	0	0	0	0	505	507	0	482	38	9	
15	0	0	0	0	505	508	0	484	38	9	
0	0	0	0	0	504	509	0	482	38	9	
1	0	0	0	0	506	508	0	484	38	9	
2	0	0	0	0	504	508	0	488	39	9	
3	0	0	0	0	503	507	0	481	38	9	
4	0	0	0	0	505	507	0	484	39	9	
5	0	0	0	0	506	507	0	480	39	9	
6	0	0	0	0	507	507	0	479	39	9	
7	0	0	0	0	506	506	0	480	39	9	
8	0	0	0	0	502	508	0	479	39	9	
9	0	0	0	0	502	507	0	481	38	9	
10	0	0	0	0	501	507	0	480	39	9	
11	0	0	0	0	499	507	0	480	39	9	
12	0	0	0	0	502	508	0	480	39	9	
13	0	0	0	0	503	506	0	480	39	9	
14	0	0	0	0	507	505	0	482	39	9	
15	0	0	0	0	504	506	0	481	39	9	
0	0	0	0	0	505	507	0	480	39	9	
1	0	0	0	0	507	507	0	481	38	9	
2	0	0	0	0	506	507	0	480	39	9	
3	0	0	0	0	506	508	0	480	39	9	
4	0	0	0	0	505	508	0	476	39	9	
5	0	0	0	0	504	507	0	476	39	9	
6	0	0	0	0	504	509	0	477	39	9	
7	0	0	0	0	508	508	0	477	39	9	
8	0	0	0	0	505	510	0	479	39	9	
9	0	0	0	0	499	510	0	479	38	9	
10	0	0	0	0	498	511	0	478	39	9	
11	0	0	0	0	497	512	0	480	39	9	
12	0	0	0	0	496	510	0	478	39	9	
13	0	0	0	0	500	510	0	480	39	9	
14	0	0	0	0	504	508	0	481	39	9	
15	0	0	0	0	505	508	0	481	39	9	
0	0	0	0	0	504	507	0	495	39	9	
1	0	0	0	0	504	507	0	523	38	9	
2	0	0	0	0	505	504	0	535	39	9	
3	0	0	0	0	505	505	0	552	39	9	
4	0	0	0	0	507	506	0	560	39	9	
5	0	0	0	0	508	504	0	563	39	9	
6	0	0	0	0	507	505	0	574	39	9	
7	0	0	0	0	507	505	0	569	39	9	
8	0	0	0	0	507	504	0	573	39	9	
9	0	0	0	0	504	505	0	568	38	9	
10	0	0	0	0	500	506	0	563	39	9	
11	0	0	0	0	501	507	0	574	39	9	
12	0	0	0	0	500	508	0	566	39	9	
13	0	0	0	0	500	508	0	569	39	9	
14	0	0	0	0	500	508	0	581	39	9	
15	0	0	0	0	502	509	0	569	39	9	
0	0	0	0	0	504	510	0	554	39	9	
1	0	0	0	0	506	509	0	558	38	9	
2	0	0	0	0	505	508	0	568	39	9	
3	0	0	0	0	506	506	0	554	39	9	
4	0	0	0	0	510	507	0	546	39	9	
5	0	0	0	0	508	505	0	568	39	9	
6	0	0	0	0	505	507	0	564	39	9	
7	0	0	0	0	510	508	0	551	39	9	
8	0	0	0	0	509	508	0	549	39	9	
9	0	0	0	0	508	506	0	562	38	9	
10	0	0	0	0	506	506	0	563	39	9	
11	0	0	0	0	501	506	0	550	39	9	
12	0	0	0	0	500	505	0	562	39	9	
13	0	0	0	0	500	506	0	566	39	9	
14	0	0	0	0	497	506	0	557	39	9	
15	0	0	0	0	501	507	0	536	39	9	
0	0	0	0	0	504	507	0	514	39	9	
1	0	0	0	0	506	507	0	498	38	9	
2	0	0	0	0	505	507	0	486	39	9	
3	0	0	0	0	503	507	0	479	39	9	
4	0	0	0	0	504	508	0	472	39	9	
5	0	0	0	0	506	506	0	471	39	9	
6	0	0	0	0	509	505	0	469	39	9	
7	0	0	0	0	506	504	0	467	39	9	
8	0	0	0	0	509	505	0	470	39	9	
9	0	0	0	0	510	504	0	468	38	9	
10	0	0	0	0	506	504	0	471	39	9	
11	0	0	0	0	502	503	0	472	39	9	
12	0	0	0	0	499	503	0	472	39	9	
13	0	0	0	0	499	504	0	474	39	9	
14	0	0	0	0	500	504	0	473	39	9	
15	0	0	0	0	500	504	0	475	39	9	
0	0	0	0	0	505	507	0	476	39	9	
1	0	0	0	0	504	508	0	475	38	9	
2	0	0	0	0	502	509	0	476	39	9	
3	0	0	0	0	504	507	0	474	39	9	
4	0	0	0	0	503	507	0	479	39	9	
5	0	0	0	0	506	507	0	477	39	9	
6	0	0	0	0	505	508	0	477	39	9	
7	0	0	0	0	504	509	0	480	39	9	
8	0	0	0	0	506	508	0	479	39	9	
9	0	0	0	0	509	506	0	482	38	9	
10	0	0	0	0	509	507	0	479	39	9	
11	0	0	0	0	504	507	0	480	39	9	
12	0	0	0	0	501	507	0	479	39	9	
13	0	0	0	0	500	505	0	478	39	9	
14	0	0	0	0	500	505	0	481	39	9	
15	0	0	0	0	500	506	0	479	39	9	
0	0	0	0	0	503	505	0	481	39	9	
1	0	0	0	0	505	506	0	482	38	9	
2	0	0	0	0	506	505	0	480	39	9	
3	0	0	0	0	505	507	0	483	39	9	
4	0	0	0	0	505	506	0	482	39	9	
5	0	0	0	0	505	507	0	482	39	9	
6	0	0	0	0	504	507	0	485	39	9	
7	0	0	0	0	507	505	0	487	39	9	
8	0	0	0	0	508	505	0	487	39	9	
9	0	0	0	0	510	505	0	485	38	9	
10	0	0	0	0	511	505	0	483	39	9	
11	0	0	0	0	507	506	0	484	39	9	
12	0	0	0	0	501	508	0	481	39	9	
13	0	0	0	0	500	506	0	483	39	9	
14	0	0	0	0	501	506	0	482	39	9	
15	0	0	0	0	498	505	0	483	38	9	
0	0	0	0	0	497	505	0	484	39	9	
1	0	0	0	0	500	506	0	484	38	9	
2	0	0	0	0	503	507	0	488	39	9	
3	0	0	0	0	503	508	0	483	39	9	
4	0	0	0	0	504	509	0	483	38	9	
5	0	0	0	0	503	509	0	481	39	9	
6	0	0	0	0	504	509	0	479	39	9	
7	0	0	0	0	505	508	0	481	39	9	
8	0	0	0	0	506	507	0	481	39	9	
9	0	0	0	0	505	506	0	508	38	9	
10	0	0	0	0	509	505	0	532	39	9	
11	0	0	0	0	508	505	0	546	39	9	
12	0	0	0	0	507	506	0	542	39	9	
13	0	0	0	0	504	506	0	551	39	9	
14	0	0	0	0	500	507	0	555	39	9	
15	0	0	0	0	500	508	0	556	39	9	
0	0	0	0	0	502	508	0	572	39	9	
1	0	0	0	0	501	507	0	563	38	9	
2	0	0	0	0	502	507	0	571	39	9	
3	0	0	0	0	507	506	0	583	39	9	
4	0	0	0	0	506	507	0	573	39	9	
5	0	0	0	0	504	506	0	562	39	9	
6	0	0	0	0	504	505	0	568	39	9	
7	0	0	0	0	504	506	0	579	39	9	
8	0	0	0	0	507	508	0	566	39	9	
9	0	0	0	0	508	507	0	559	38	9	
10	0	0	0	0	507	507	0	568	39	9	
11	0	0	0	0	509	507	0	574	39	9	
12	0	0	0	0	509	506	0	561	39	9	
13	0	0	0	0	504	505	0	560	39	9	
14	0	0	0	0	502	505	0	574	39	9	
15	0	0	0	0	502	505	0	573	39	9	
0	0	0	0	0	500	505	0	560	39	9	
1	0	0	0	0	501	506	0	564	38	9	
2	0	0	0	0	501	504	0	578	39	9	
3	0	0	0	0	502	505	0	572	39	9	
4	0	0	0	0	503	504	0	554	39	9	
5	0	0	0	0	504	504	0	536	39	9	
6	0	0	0	0	504	505	0	521	39	9	
7	0	0	0	0	504	508	0	508	39	9	
8	0	0	0	0	506	507	0	503	39	9	
9	0	0	0	0	506	507	0	499	38	9	
10	0	0	0	0	510	508	0	497	39	9	
11	0	0	0	0	508	508	0	495	39	9	
12	0	0	0	0	508	507	0	493	39	9	
13	0	0	0	0	508	506	0	492	39	9	
14	0	0	0	0	504	506	0	491	39	9	
15	0	0	0	0	503	507	0	498	39	9	
0	0	0	0	0	502	507	0	490	39	9	
1	0	0	0	0	498	507	0	489	38	9	
2	0	0	0	0	500	507	0	487	39	9	
3	0	0	0	0	502	506	0	487	39	9	
4	0	0	0	0	504	505	0	490	39	9	
5	0	0	0	0	507	506	0	489	39	9	
6	0	0	0	0	504	506	0	490	39	9	
7	0	0	0	0	503	505	0	488	39	9	
8	0	0	0	0	505	504	0	485	39	9	
9	0	0	0	0	507	506	0	488	38	9	
10	0	0	0	0	508	508	0	487	39	9	
11	0	0	0	0	508	508	0	484	39	9	
12	0	0	0	0	511	507	0	487	39	9	
13	0	0	0	0	508	505	0	489	39	9	
14	0	0	0	0	505	505	0	491	39	9	
15	0	0	0	0	503	504	0	489	39	9	
0	0	0	0	0	497	506	0	492	39	9	
1	0	0	0	0	497	507	0	494	38	9	
2	0	0	0	0	497	507	0	494	39	9	
3	0	0	0	0	499	508	0	494	39	9	
4	0	0	0	0	502	507	0	493	39	9	
5	0	0	0	0	502	504	0	490	39	9	
6	0	0	0	0	504	505	0	490	39	9	
7	0	0	0	0	503	503	0	488	39	9	
8	0	0	0	0	502	503	0	491	39	9	
9	0	0	0	0	505	504	0	490	38	9	
10	0	0	0	0	504	504	0	488	39	9	
11	0	0	0	0	506	504	0	488	39	9	
12	0	0	0	0	507	504	0	486	39	9	
13	0	0	0	0	508	504	0	488	39	9	
14	0	0	0	0	510	502	0	495	39	9	
15	0	0	0	0	505	502	0	487	39	9	
0	0	0	0	0	501	504	0	489	39	9	
1	0	0	0	0	499	506	0	489	38	9	
2	0	0	0	0	500	507	0	490	39	9	
3	0	0	0	0	501	507	0	489	39	9	
4	0	0	0	0	499	508	0	489	39	9	
5	0	0	0	0	501	509	0	492	39	9	
6	0	0	0	0	502	507	0	490	39	9	
7	0	0	0	0	505	503	0	492	39	9	
8	0	0	0	0	505	506	0	492	39	9	
9	0	0	0	0	503	507	0	491	38	9	
10	0	0	0	0	505	509	0	492	39	9	
11	0	0	0	0	505	507	0	489	39	9	
12	0	0	0	0	507	505	0	491	39	9	
13	0	0	0	0	509	504	0	491	39	9	
14	0	0	0	0	509	504	0	491	39	9	
15	0	0	0	0	508	506	0	494	39	9	
0	0	0	0	0	505	506	0	494	39	9	
1	0	0	0	0	501	507	0	497	38	9	
2	0	0	0	0	502	508	0	499	39	9	
3	0	0	0	0	498	508	0	499	39	9	
4	0	0	0	0	502	507	0	499	39	9	
5	0	0	0	0	502	508	0	508	39	9	
6	0	0	0	0	504	510	0	535	39	9	
7	0	0	0	0	507	508	0	560	39	9	
8	0	0	0	0	506	507	0	558	39	9	
9	0	0	0	0	506	506	0	548	38	9	
10	0	0	0	0	504	505	0	534	39	9	
11	0	0	0	0	507	506	0	523	39	9	
12	0	0	0	0	506	507	0	512	39	9	
13	0	0	0	0	506	507	0	505	39	9	
14	0	0	0	0	508	509	0	502	39	9	
15	0	0	0	0	510	508	0	499	39	9	
0	0	0	0	0	507	507	0	500	39	9	
1	0	0	0	0	505	507	0	498	38	9	
2	0	0	0	0	500	508	0	495	39	9	
3	0	0	0	0	499	507	0	507	39	9	
4	0	0	0	0	499	507	0	536	39	9	
5	0	0	0	0	501	507	0	557	39	9	
6	0	0	0	0	504	508	0	552	39	9	
7	0	0	0	0	505	508	0	540	39	9	
8	0	0	0	0	508	509	0	526	39	9	
9	0	0	0	0	506	509	0	515	38	9	
10	0	0	0	0	502	508	0	507	38	9	
11	0	0	0	0	502	508	0	501	39	9	
12	0	0	0	0	504	509	0	497	39	9	
13	0	0	0	0	506	509	0	496	39	9	
14	0	0	0	0	505	507	0	494	38	9	
15	0	0	0	0	505	506	0	495	38	9	
0	0	0	0	0	506	505	0	495	38	9	
1	0	0	0	0	505	502	0	494	38	9	
2	0	0	0	0	502	502	0	494	38	9	
3	0	0	0	0	499	504	0	495	38	9	
4	0	0	0	0	501	505	0	495	38	9	
5	0	0	0	0	502	505	0	494	39	9	
6	0	0	0	0	502	507	0	495	38	9	
7	0	0	0	0	503	505	0	495	38	9	
8	0	0	0	0	505	505	0	496	38	9	
9	0	0	0	0	506	505	0	496	38	9	
10	0	0	0	0	503	505	0	495	38	9	
11	0	0	0	0	503	505	0	496	38	9	
12	0	0	0	0	505	507	0	496	38	9	
13	0	0	0	0	508	508	0	497	39	9	
14	0	0	0	0	506	507	0	497	38	9	
15	0	0	0	0	507	507	0	498	38	9	
0	0	0	0	0	507	507	0	497	38	9	
1	0	0	0	0	504	506	0	496	38	9	
2	0	0	0	0	501	505	0	496	38	9	
3	0	0	0	0	500	506	0	496	38	9	
4	0	0	0	0	498	507	0	496	38	9	
5	0	0	0	0	497	506	0	495	39	9	
6	0	0	0	0	500	506	0	494	38	9	
7	0	0	0	0	500	504	0	493	38	9	
8	0	0	0	0	504	506	0	492	38	9	
9	0	0	0	0	504	506	0	490	38	9	
10	0	0	0	0	505	506	0	489	39	9	
11	0	0	0	0	503	507	0	489	39	9	
12	0	0	0	0	503	507	0	488	39	9	
13	0	0	0	0	507	509	0	491	39	9	
14	0	0	0	0	510	508	0	489	39	9	
15	0	0	0	0	510	507	0	489	39	9	
0	0	0	0	0	510	506	0	492	39	9	
1	0	0	0	0	511	506	0	493	38	9	
2	0	0	0	0	505	507	0	494	39	9	
3	0	0	0	0	503	508	0	494	39	9	
4	0	0	0	0	501	508	0	492	39	9	
5	0	0	0	0	500	508	0	497	39	9	
6	0	0	0	0	501	508	0	491	39	9	
7	0	0	0	0	500	508	0	493	39	9	
8	0	0	0	0	501	505	0	492	39	9	
9	0	0	0	0	504	504	0	492	38	9	
10	0	0	0	0	505	506	0	493	39	9	
11	0	0	0	0	505	507	0	493	39	9	
12	0	0	0	0	504	506	0	496	39	9	
13	0	0	0	0	504	508	0	494	39	9	
14	0	0	0	0	507	508	0	494	39	9	
15	0	0	0	0	508	509	0	494	39	9	
0	0	0	0	0	508	509	0	492	39	9	
1	0	0	0	0	508	509	0	493	38	9	
2	0	0	0	0	506	509	0	493	39	9	
3	0	0	0	0	507	508	0	493	39	9	
4	0	0	0	0	502	508	0	495	39	9	
5	0	0	0	0	499	507	0	503	39	9	
6	0	0	0	0	500	507	0	531	39	9	
7	0	0	0	0	499	508	0	561	39	9	
8	0	0	0	0	501	509	0	561	39	9	
9	0	0	0	0	503	507	0	560	38	9	
10	0	0	0	0	505	506	0	575	39	9	
11	0	0	0	0	505	506	0	583	39	9	
12	0	0	0	0	506	505	0	569	39	9	
13	0	0	0	0	504	505	0	566	39	9	
14	0	0	0	0	505	507	0	579	39	9	
15	0	0	0	0	506	508	0	577	39	9	
0	0	0	0	0	507	508	0	562	39	9	
1	0	0	0	0	507	506	0	563	38	9	
2	0	0	0	0	507	507	0	578	39	9	
3	0	0	0	0	508	507	0	570	39	9	
4	0	0	0	0	504	507	0	558	39	9	
5	0	0	0	0	502	505	0	564	39	9	
6	0	0	0	0	500	506	0	575	39	9	
7	0	0	0	0	499	505	0	561	39	9	
8	0	0	0	0	502	505	0	554	39	9	
9	0	0	0	0	502	505	0	566	38	9	
10	0	0	0	0	505	507	0	573	39	9	
11	0	0	0	0	504	507	0	558	39	9	
12	0	0	0	0	506	506	0	555	39	9	
13	0	0	0	0	504	505	0	567	39	9	
14	0	0	0	0	502	504	0	566	39	9	
15	0	0	0	0	506	504	0	548	39	9	
0	0	0	0	0	507	505	0	528	39	9	
1	0	0	0	0	503	507	0	511	38	9	
2	0	0	0	0	507	509	0	498	39	9	
3	0	0	0	0	506	509	0	491	39	9	
4	0	0	0	0	504	510	0	486	39	9	
5	0	0	0	0	502	509	0	480	39	9	
6	0	0	0	0	499	507	0	476	39	9	
7	0	0	0	0	500	507	0	477	39	9	
8	0	0	0	0	500	507	0	476	39	9	
9	0	0	0	0	499	508	0	479	38	9	
10	0	0	0	0	504	507	0	479	39	9	
11	0	0	0	0	504	508	0	495	39	9	
12	0	0	0	0	502	508	0	480	39	9	
13	0	0	0	0	505	509	0	479	39	9	
14	0	0	0	0	503	508	0	482	39	9	
15	0	0	0	0	507	508	0	480	39	9	
0	0	0	0	0	507	507	0	490	39	9	
1	0	0	0	0	508	506	0	484	38	9	
2	0	0	0	0	507	504	0	482	39	9	
3	0	0	0	0	510	503	0	486	39	9	
4	0	0	0	0	508	503	0	485	39	9	
5	0	0	0	0	505	504	0	484	39	9	
6	0	0	0	0	502	506	0	484	39	9	
7	0	0	0	0	500	507	0	483	39	9	
8	0	0	0	0	499	507	0	484	39	9	
9	0	0	0	0	499	507	0	483	39	9	
10	0	0	0	0	501	505	0	484	39	9	
11	0	0	0	0	503	504	0	484	39	9	
12	0	0	0	0	504	505	0	483	39	9	
13	0	0	0	0	505	506	0	487	39	9	
14	0	0	0	0	506	505	0	486	39	9	
15	0	0	0	0	504	504	0	488	39	9	
0	0	0	0	0	506	504	0	489	39	9	
1	0	0	0	0	506	503	0	489	39	9	
2	0	0	0	0	506	504	0	490	39	9	
3	0	0	0	0	509	507	0	489	39	9	
4	0	0	0	0	509	508	0	507	39	9	
5	0	0	0	0	504	508	0	492	39	9	
6	0	0	0	0	503	507	0	492	39	9	
7	0	0	0	0	500	505	0	495	39	9	
8	0	0	0	0	499	504	0	496	39	9	
9	0	0	0	0	498	504	0	495	39	9	
10	0	0	0	0	502	503	0	495	39	9	
11	0	0	0	0	500	501	0	497	39	9	
12	0	0	0	0	503	502	0	496	39	9	
13	0	0	0	0	504	503	0	494	39	9	
14	0	0	0	0	504	504	0	496	39	9	
15	0	0	0	0	505	504	0	496	39	9	
0	0	0	0	0	505	505	0	496	39	9	
1	0	0	0	0	506	504	0	496	39	9	
2	0	0	0	0	506	504	0	494	39	9	
3	0	0	0	0	508	504	0	492	39	9	
4	0	0	0	0	509	504	0	493	39	9	
5	0	0	0	0	508	504	0	493	39	9	
6	0	0	0	0	507	504	0	496	39	9	
7	0	0	0	0	504	504	0	516	39	9	
8	0	0	0	0	500	504	0	548	39	9	
9	0	0	0	0	499	504	0	554	39	9	
10	0	0	0	0	499	504	0	568	39	9	
11	0	0	0	0	500	506	0	563	39	9	
12	0	0	0	0	500	507	0	579	39	9	
13	0	0	0	0	503	508	0	567	39	9	
14	0	0	0	0	503	508	0	560	39	9	
15	0	0	0	0	504	507	0	571	39	9	
0	0	0	0	0	504	507	0	576	39	9	
1	0	0	0	0	505	505	0	561	38	9	
2	0	0	0	0	508	507	0	559	39	9	
3	0	0	0	0	508	507	0	573	39	9	
4	0	0	0	0	505	505	0	572	39	9	
5	0	0	0	0	508	505	0	558	39	9	
6	0	0	0	0	510	504	0	562	39	9	
7	0	0	0	0	507	504	0	575	39	9	
8	0	0	0	0	505	507	0	568	39	9	
9	0	0	0	0	504	508	0	551	38	9	
10	0	0	0	0	500	508	0	530	39	9	
11	0	0	0	0	501	509	0	514	39	9	
12	0	0	0	0	500	508	0	500	39	9	
13	0	0	0	0	502	510	0	504	39	9	
14	0	0	0	0	507	511	0	528	39	9	
15	0	0	0	0	504	511	0	546	39	9	
0	0	0	0	0	505	511	0	543	39	9	
1	0	0	0	0	503	510	0	548	38	9	
2	0	0	0	0	505	508	0	566	38	9	
3	0	0	0	0	505	508	0	570	39	9	
4	0	0	0	0	504	508	0	554	39	9	
5	0	0	0	0	507	509	0	535	39	9	
6	0	0	0	0	507	509	0	516	38	9	
7	0	0	0	0	506	508	0	503	38	9	
8	0	0	0	0	504	507	0	495	38	9	
9	0	0	0	0	503	508	0	492	38	9	
10	0	0	0	0	500	508	0	487	38	9	
11	0	0	0	0	500	509	0	484	38	9	
12	0	0	0	0	500	509	0	485	38	9	
13	0	0	0	0	499	508	0	485	39	9	
14	0	0	0	0	501	508	0	489	38	9	
15	0	0	0	0	504	508	0	489	38	9	
0	0	0	0	0	504	507	0	489	38	9	
1	0	0	0	0	505	507	0	492	38	9	
2	0	0	0	0	504	507	0	489	38	9	
3	0	0	0	0	503	506	0	488	38	9	
4	0	0	0	0	505	506	0	487	38	9	
5	0	0	0	0	506	505	0	486	39	9	
6	0	0	0	0	509	505	0	486	38	9	
7	0	0	0	0	510	507	0	485	38	9	
8	0	0	0	0	507	505	0	488	38	9	
9	0	0	0	0	504	504	0	484	38	9	
10	0	0	0	0	500	505	0	483	38	9	
11	0	0	0	0	499	507	0	485	38	9	
12	0	0	0	0	498	506	0	486	38	9	
13	0	0	0	0	499	505	0	491	39	9	
14	0	0	0	0	503	506	0	488	38	9	
15	0	0	0	0	504	507	0	487	38	9	
0	0	0	0	0	505	505	0	490	38	9	
1	0	0	0	0	508	505	0	490	38	9	
2	0	0	0	0	505	506	0	509	38	9	
3	0	0	0	0	504	508	0	492	38	9	
4	0	0	0	0	506	507	0	494	38	9	
5	0	0	0	0	507	507	0	494	39	9	
6	0	0	0	0	508	505	0	493	38	9	
7	0	0	0	0	508	503	0	495	38	9	
8	0	0	0	0	509	505	0	496	38	9	
9	0	0	0	0	505	505	0	496	38	9	
10	0	0	0	0	503	505	0	496	39	9	
11	0	0	0	0	498	505	0	496	39	9	
12	0	0	0	0	497	505	0	497	39	9	
13	0	0	0	0	498	506	0	496	39	9	
14	0	0	0	0	500	507	0	505	38	9	
15	0	0	0	0	502	507	0	495	38	9	
0	0	0	0	0	503	507	0	494	38	9	
1	0	0	0	0	505	508	0	494	38	9	
2	0	0	0	0	505	507	0	493	39	9	
3	0	0	0	0	505	507	0	494	38	9	
4	0	0	0	0	504	508	0	494	39	9	
5	0	0	0	0	508	506	0	496	39	9	
6	0	0	0	0	507	505	0	496	39	9	
7	0	0	0	0	507	506	0	496	39	9	
8	0	0	0	0	508	508	0	497	39	9	
9	0	0	0	0	507	508	0	497	38	9	
10	0	0	0	0	505	507	0	497	39	9	
11	0	0	0	0	503	506	0	497	39	9	
12	0	0	0	0	501	507	0	497	39	9	
13	0	0	0	0	498	506	0	495	39	9	
14	0	0	0	0	498	505	0	508	39	9	
15	0	0	0	0	500	505	0	538	39	9	
0	0	0	0	0	502	507	0	559	39	9	
1	0	0	0	0	505	507	0	572	38	9	
2	0	0	0	0	503	507	0	559	39	9	
3	0	0	0	0	506	507	0	574	39	9	
4	0	0	0	0	506	505	0	576	39	9	
5	0	0	0	0	505	505	0	562	39	9	
6	0	0	0	0	508	504	0	566	39	9	
7	0	0	0	0	507	504	0	579	39	9	
8	0	0	0	0	507	505	0	572	39	9	
9	0	0	0	0	508	506	0	559	38	9	
10	0	0	0	0	508	507	0	566	39	9	
11	0	0	0	0	505	507	0	591	39	9	
12	0	0	0	0	504	507	0	563	39	9	
13	0	0	0	0	503	506	0	555	39	9	
14	0	0	0	0	502	507	0	566	39	9	
15	0	0	0	0	501	507	0	572	39	9	
0	0	0	0	0	503	508	0	557	39	9	
1	0	0	0	0	503	508	0	553	38	9	
2	0	0	0	0	503	507	0	561	39	9	
3	0	0	0	0	505	507	0	560	39	9	
4	0	0	0	0	504	504	0	567	39	9	
5	0	0	0	0	507	505	0	560	39	9	
6	0	0	0	0	507	505	0	558	39	9	
7	0	0	0	0	504	505	0	570	39	9	
8	0	0	0	0	505	507	0	569	39	9	
9	0	0	0	0	507	507	0	551	38	9	
10	0	0	0	0	507	506	0	553	39	9	
11	0	0	0	0	504	505	0	567	39	9	
12	0	0	0	0	499	505	0	559	39	9	
13	0	0	0	0	497	507	0	540	39	9	
14	0	0	0	0	502	507	0	521	39	9	
15	0	0	0	0	500	508	0	505	39	9	
0	0	0	0	0	499	508	0	494	39	9	
1	0	0	0	0	502	509	0	487	38	9	
2	0	0	0	0	503	509	0	483	39	9	
3	0	0	0	0	506	510	0	481	39	9	
4	0	0	0	0	505	511	0	478	39	9	
5	0	0	0	0	504	507	0	475	39	9	
6	0	0	0	0	506	507	0	475	39	9	
7	0	0	0	0	505	507	0	473	39	9	
8	0	0	0	0	508	509	0	479	39	9	
9	0	0	0	0	509	508	0	475	38	9	
10	0	0	0	0	509	507	0	472	39	9	
11	0	0	0	0	510	507	0	474	39	9	
12	0	0	0	0	504	507	0	473	39	9	
13	0	0	0	0	501	508	0	476	39	9	
14	0	0	0	0	499	510	0	473	39	9	
15	0	0	0	0	501	508	0	470	39	9	
0	0	0	0	0	499	508	0	472	39	9	
1	0	0	0	0	499	508	0	472	38	9	
2	0	0	0	0	500	508	0	473	39	9	
3	0	0	0	0	504	508	0	472	39	9	
4	0	0	0	0	506	508	0	471	39	9	
5	0	0	0	0	504	507	0	471	39	9	
6	0	0	0	0	505	504	0	471	39	9	
7	0	0	0	0	505	504	0	474	39	9	
8	0	0	0	0	505	502	0	472	39	9	
9	0	0	0	0	509	503	0	473	38	9	
10	0	0	0	0	508	504	0	472	39	9	
11	0	0	0	0	508	504	0	471	39	9	
12	0	0	0	0	508	507	0	473	39	9	
13	0	0	0	0	504	505	0	470	39	9	
14	0	0	0	0	502	503	0	470	39	9	
15	0	0	0	0	499	503	0	472	39	9	
0	0	0	0	0	498	504	0	472	39	9	
1	0	0	0	0	502	505	0	473	38	9	
2	0	0	0	0	502	507	0	470	39	9	
3	0	0	0	0	502	506	0	471	39	9	
4	0	0	0	0	507	507	0	473	39	9	
5	0	0	0	0	506	506	0	485	39	9	
6	0	0	0	0	503	507	0	475	38	9	
7	0	0	0	0	504	505	0	473	39	9	
8	0	0	0	0	505	506	0	474	38	9	
9	0	0	0	0	508	506	0	476	38	9	
10	0	0	0	0	508	507	0	492	39	9	
11	0	0	0	0	508	505	0	479	39	9	
12	0	0	0	0	506	505	0	480	38	9	
13	0	0	0	0	506	505	0	480	39	9	
14	0	0	0	0	501	505	0	483	39	9	
15	0	0	0	0	499	507	0	483	38	9	
0	0	0	0	0	501	509	0	486	38	9	
1	0	0	0	0	504	507	0	484	38	9	
2	0	0	0	0	501	507	0	485	38	9	
3	0	0	0	0	506	507	0	497	39	9	
4	0	0	0	0	506	504	0	528	39	9	
5	0	0	0	0	505	506	0	550	39	9	
6	0	0	0	0	505	507	0	547	39	9	
7	0	0	0	0	506	507	0	552	39	9	
8	0	0	0	0	505	506	0	569	38	9	
9	0	0	0	0	505	505	0	572	38	9	
10	0	0	0	0	508	505	0	561	39	9	
11	0	0	0	0	507	504	0	567	39	9	
12	0	0	0	0	508	505	0	581	39	9	
13	0	0	0	0	508	505	0	572	39	9	
14	0	0	0	0	504	505	0	560	39	9	
15	0	0	0	0	501	506	0	568	39	9	
0	0	0	0	0	499	506	0	580	39	9	
1	0	0	0	0	499	505	0	566	38	9	
2	0	0	0	0	499	504	0	547	39	9	
3	0	0	0	0	499	504	0	528	39	9	
4	0	0	0	0	501	505	0	512	39	9	
5	0	0	0	0	503	506	0	502	39	9	
6	0	0	0	0	502	506	0	494	39	9	
7	0	0	0	0	502	507	0	492	39	9	
8	0	0	0	0	503	506	0	485	39	9	
9	0	0	0	0	506	506	0	483	38	9	
10	0	0	0	0	505	504	0	479	39	9	
11	0	0	0	0	505	504	0	494	39	9	
12	0	0	0	0	507	503	0	523	39	9	
13	0	0	0	0	508	502	0	535	39	9	
14	0	0	0	0	507	502	0	531	39	9	
15	0	0	0	0	505	503	0	542	39	9	
0	0	0	0	0	502	503	0	561	39	9	
1	0	0	0	0	505	504	0	556	39	9	
2	0	0	0	0	501	503	0	538	39	9	
3	0	0	0	0	500	502	0	518	39	9	
4	0	0	0	0	501	502	0	504	39	9	
5	0	0	0	0	501	501	0	493	39	9	
6	0	0	0	0	504	501	0	500	39	9	
7	0	0	0	0	503	502	0	482	39	9	
8	0	0	0	0	501	502	0	483	39	9	
9	0	0	0	0	505	501	0	479	39	9	
10	0	0	0	0	506	503	0	479	39	9	
11	0	0	0	0	506	505	0	492	39	9	
12	0	0	0	0	508	505	0	479	39	9	
13	0	0	0	0	508	505	0	481	39	9	
14	0	0	0	0	512	504	0	482	39	9	
15	0	0	0	0	507	504	0	482	39	9	
0	0	0	0	0	502	503	0	483	39	9	
1	0	0	0	0	502	504	0	483	39	9	
2	0	0	0	0	501	505	0	484	39	9	
3	0	0	0	0	498	505	0	483	39	9	
4	0	0	0	0	499	504	0	482	39	9	
5	0	0	0	0	502	505	0	485	39	9	
6	0	0	0	0	504	506	0	483	39	9	
7	0	0	0	0	504	506	0	485	39	9	
8	0	0	0	0	505	505	0	484	39	9	
9	0	0	0	0	504	507	0	483	39	9	
10	0	0	0	0	503	506	0	483	39	9	
11	0	0	0	0	504	503	0	481	39	9	
12	0	0	0	0	507	504	0	484	39	9	
13	0	0	0	0	504	505	0	484	39	9	
14	0	0	0	0	507	505	0	485	39	9	
15	0	0	0	0	508	507	0	489	39	9	
0	0	0	0	0	503	508	0	487	39	9	
1	0	0	0	0	501	508	0	489	39	9	
2	0	0	0	0	501	507	0	489	39	9	
3	0	0	0	0	499	506	0	488	39	9	
4	0	0	0	0	500	507	0	489	39	9	
5	0	0	0	0	500	507	0	489	39	9	
6	0	0	0	0	504	506	0	491	39	9	
7	0	0	0	0	508	507	0	488	39	9	
8	0	0	0	0	504	506	0	487	39	9	
9	0	0	0	0	505	507	0	489	39	9	
10	0	0	0	0	502	508	0	486	39	9	
11	0	0	0	0	505	508	0	487	39	9	
12	0	0	0	0	507	507	0	487	39	9	
13	0	0	0	0	507	507	0	486	39	9	
14	0	0	0	0	508	508	0	487	39	9	
15	0	0	0	0	508	508	0	487	39	9	
0	0	0	0	0	507	508	0	488	39	9	
1	0	0	0	0	502	508	0	487	38	9	
2	0	0	0	0	500	508	0	488	39	9	
3	0	0	0	0	498	507	0	492	39	9	
4	0	0	0	0	497	508	0	491	39	9	
5	0	0	0	0	497	507	0	495	39	9	
6	0	0	0	0	499	506	0	497	39	9	
7	0	0	0	0	503	507	0	497	39	9	
8	0	0	0	0	505	506	0	499	39	9	
9	0	0	0	0	505	505	0	498	38	9	
10	0	0	0	0	507	504	0	499	39	9	
11	0	0	0	0	506	504	0	499	39	9	
12	0	0	0	0	507	504	0	499	39	9	
13	0	0	0	0	508	504	0	512	39	9	
14	0	0	0	0	508	503	0	543	39	9	
15	0	0	0	0	509	502	0	563	39	9	
0	0	0	0	0	510	503	0	560	39	9	
1	0	0	0	0	509	502	0	565	38	9	
2	0	0	0	0	503	502	0	580	39	9	
3	0	0	0	0	498	502	0	583	39	9	
4	0	0	0	0	502	505	0	569	39	9	
5	0	0	0	0	501	505	0	572	39	9	
6	0	0	0	0	500	507	0	587	39	9	
7	0	0	0	0	502	509	0	580	39	9	
8	0	0	0	0	507	507	0	568	39	9	
9	0	0	0	0	505	505	0	577	38	9	
10	0	0	0	0	506	506	0	586	39	9	
11	0	0	0	0	505	507	0	572	39	9	
12	0	0	0	0	504	506	0	564	39	9	
13	0	0	0	0	505	505	0	575	39	9	
14	0	0	0	0	505	505	0	583	39	9	
15	0	0	0	0	506	507	0	567	39	9	
0	0	0	0	0	507	507	0	564	39	9	
1	0	0	0	0	506	508	0	578	38	9	
2	0	0	0	0	503	506	0	577	39	9	
3	0	0	0	0	501	509	0	564	39	9	
4	0	0	0	0	499	509	0	568	39	9	
5	0	0	0	0	501	509	0	580	39	9	
6	0	0	0	0	500	509	0	573	39	9	
7	0	0	0	0	500	509	0	553	39	9	
8	0	0	0	0	504	508	0	534	39	9	
9	0	0	0	0	505	508	0	516	38	9	
10	0	0	0	0	504	508	0	501	39	9	
11	0	0	0	0	504	508	0	494	39	9	
12	0	0	0	0	504	506	0	487	39	9	
13	0	0	0	0	505	508	0	486	39	9	
14	0	0	0	0	505	508	0	481	39	9	
15	0	0	0	0	506	508	0	482	39	9	
0	0	0	0	0	509	508	0	482	39	9	
1	0	0	0	0	507	507	0	481	38	9	
2	0	0	0	0	507	507	0	483	39	9	
3	0	0	0	0	505	506	0	483	39	9	
4	0	0	0	0	499	506	0	484	39	9	
5	0	0	0	0	498	505	0	483	39	9	
6	0	0	0	0	500	505	0	482	39	9	
7	0	0	0	0	503	504	0	485	39	9	
8	0	0	0	0	504	503	0	482	39	9	
9	0	0	0	0	505	504	0	481	38	9	
10	0	0	0	0	504	504	0	481	39	9	
11	0	0	0	0	507	504	0	482	39	9	
12	0	0	0	0	503	504	0	484	39	9	
13	0	0	0	0	505	502	0	485	39	9	
14	0	0	0	0	505	504	0	486	39	9	
15	0	0	0	0	507	505	0	486	39	9	
0	0	0	0	0	507	507	0	486	39	9	
1	0	0	0	0	509	507	0	488	38	9	
2	0	0	0	0	508	508	0	488	39	9	
3	0	0	0	0	507	508	0	486	39	9	
4	0	0	0	0	502	507	0	486	39	9	
5	0	0	0	0	498	508	0	486	39	9	
6	0	0	0	0	498	508	0	487	39	9	
7	0	0	0	0	499	507	0	486	39	9	
8	0	0	0	0	500	506	0	486	39	9	
9	0	0	0	0	502	507	0	487	38	9	
10	0	0	0	0	504	505	0	484	39	9	
11	0	0	0	0	504	505	0	485	39	9	
12	0	0	0	0	505	505	0	485	39	9	
13	0	0	0	0	504	504	0	485	39	9	
14	0	0	0	0	506	506	0	488	39	9	
15	0	0	0	0	508	505	0	487	39	9	
0	0	0	0	0	508	505	0	487	39	9	
1	0	0	0	0	510	504	0	488	38	9	
2	0	0	0	0	508	504	0	487	39	9	
3	0	0	0	0	508	505	0	488	39	9	
4	0	0	0	0	504	506	0	488	39	9	
5	0	0	0	0	502	505	0	489	39	9	
6	0	0	0	0	500	504	0	488	39	9	
7	0	0	0	0	497	503	0	487	39	9	
8	0	0	0	0	500	504	0	489	39	9	
9	0	0	0	0	500	504	0	490	38	9	
10	0	0	0	0	501	505	0	501	39	9	
11	0	0	0	0	505	506	0	490	39	9	
12	0	0	0	0	504	505	0	492	39	9	
13	0	0	0	0	504	507	0	493	39	9	
14	0	0	0	0	501	508	0	491	39	9	
15	0	0	0	0	506	508	0	494	39	9	
0	0	0	0	0	507	506	0	495	39	9	
1	0	0	0	0	506	505	0	494	38	9	
2	0	0	0	0	508	507	0	494	39	9	
3	0	0	0	0	509	505	0	500	39	9	
4	0	0	0	0	507	505	0	528	39	9	
5	0	0	0	0	504	503	0	560	39	9	
6	0	0	0	0	499	504	0	556	39	9	
7	0	0	0	0	500	505	0	558	39	9	
8	0	0	0	0	499	506	0	574	39	9	
9	0	0	0	0	499	505	0	581	38	9	
10	0	0	0	0	502	507	0	567	39	9	
11	0	0	0	0	503	504	0	564	39	9	
12	0	0	0	0	504	504	0	578	39	9	
13	0	0	0	0	504	505	0	577	39	9	
14	0	0	0	0	504	505	0	563	39	9	
15	0	0	0	0	503	504	0	566	39	9	
0	0	0	0	0	507	504	0	580	39	9	
1	0	0	0	0	508	505	0	572	38	9	
2	0	0	0	0	508	505	0	559	39	9	
3	0	0	0	0	508	505	0	566	39	9	
4	0	0	0	0	508	505	0	575	39	9	
5	0	0	0	0	507	506	0	562	39	9	
6	0	0	0	0	502	507	0	556	39	9	
7	0	0	0	0	499	507	0	566	39	9	
8	0	0	0	0	499	507	0	572	39	9	
9	0	0	0	0	502	506	0	555	38	9	
10	0	0	0	0	503	505	0	552	39	9	
11	0	0	0	0	504	504	0	563	39	9	
12	0	0	0	0	504	503	0	561	39	9	
13	0	0	0	0	502	504	0	543	39	9	
14	0	0	0	0	504	504	0	523	39	9	
15	0	0	0	0	505	505	0	506	39	9	
0	0	0	0	0	503	507	0	494	39	9	
1	0	0	0	0	505	508	0	483	38	9	
2	0	0	0	0	508	506	0	480	39	9	
3	0	0	0	0	507	507	0	473	39	9	
4	0	0	0	0	509	507	0	471	39	9	
5	0	0	0	0	508	505	0	471	39	9	
6	0	0	0	0	503	504	0	470	39	9	
7	0	0	0	0	499	504	0	470	39	9	
8	0	0	0	0	499	504	0	469	39	9	
9	0	0	0	0	498	504	0	467	38	9	
10	0	0	0	0	500	505	0	467	39	9	
11	0	0	0	0	500	503	0	470	39	9	
12	0	0	0	0	503	504	0	471	39	9	
13	0	0	0	0	504	506	0	468	39	9	
14	0	0	0	0	505	508	0	467	38	9	
15	0	0	0	0	502	507	0	470	38	9	
0	0	0	0	0	502	506	0	470	38	9	
1	0	0	0	0	505	506	0	472	38	9	
2	0	0	0	0	506	505	0	471	38	9	
3	0	0	0	0	507	506	0	471	38	9	
4	0	0	0	0	509	506	0	471	38	9	
5	0	0	0	0	511	508	0	470	39	9	
6	0	0	0	0	507	507	0	472	38	9	
7	0	0	0	0	503	508	0	472	38	9	
8	0	0	0	0	502	510	0	472	38	9	
9	0	0	0	0	501	508	0	474	38	9	
10	0	0	0	0	501	507	0	475	39	9	
11	0	0	0	0	499	507	0	479	39	9	
12	0	0	0	0	502	506	0	477	39	9	
13	0	0	0	0	503	506	0	476	39	9	
14	0	0	0	0	504	508	0	476	39	9	
15	0	0	0	0	503	506	0	474	39	9	
0	0	0	0	0	506	506	0	476	39	9	
1	0	0	0	0	502	507	0	476	38	9	
2	0	0	0	0	504	508	0	476	38	8	
3	0	0	0	0	505	509	0	476	38	9	
4	0	0	0	0	508	510	0	476	38	9	
5	0	0	0	0	510	512	0	479	39	9	
6	0	0	0	0	510	510	0	478	39	9	
7	0	0	0	0	508	509	0	479	39	9	
8	0	0	0	0	503	509	0	481	39	9	
9	0	0	0	0	500	509	0	480	38	9	
10	0	0	0	0	499	509	0	482	39	8	
11	0	0	0	0	498	508	0	481	39	8	
12	0	0	0	0	501	510	0	479	39	9	
13	0	0	0	0	505	511	0	478	39	9	
14	0	0	0	0	503	509	0	478	39	9	
15	0	0	0	0	504	509	0	479	39	9	
0	0	0	0	0	504	508	0	479	39	9	
1	0	0	0	0	504	509	0	477	38	9	
2	0	0	0	0	504	509	0	477	39	9	
3	0	0	0	0	503	510	0	476	39	8	
4	0	0	0	0	506	509	0	479	39	9	
5	0	0	0	0	508	508	0	479	39	9	
6	0	0	0	0	508	508	0	480	38	9	
7	0	0	0	0	508	508	0	483	39	9	
8	0	0	0	0	504	508	0	486	38	9	
9	0	0	0	0	502	509	0	488	38	9	
10	0	0	0	0	498	508	0	490	39	9	
11	0	0	0	0	499	506	0	489	39	8	
12	0	0	0	0	501	506	0	495	39	9	
13	0	0	0	0	500	506	0	493	39	9	
14	0	0	0	0	505	509	0	496	39	9	
15	0	0	0	0	505	510	0	495	39	9	
0	0	0	0	0	502	511	0	494	39	9	
1	0	0	0	0	502	510	0	494	38	9	
2	0	0	0	0	504	508	0	492	38	9	
3	0	0	0	0	504	510	0	492	39	8	
4	0	0	0	0	506	511	0	491	39	9	
5	0	0	0	0	507	510	0	493	39	9	
6	0	0	0	0	508	510	0	493	38	9	
7	0	0	0	0	510	510	0	491	39	9	
8	0	0	0	0	508	508	0	494	39	9	
9	0	0	0	0	504	508	0	494	38	9	
10	0	0	0	0	501	509	0	494	39	9	
11	0	0	0	0	501	509	0	494	39	9	
12	0	0	0	0	499	507	0	494	39	9	
13	0	0	0	0	499	506	0	494	39	8	
14	0	0	0	0	500	507	0	492	39	9	
15	0	0	0	0	504	509	0	492	39	9	
0	0	0	0	0	504	508	0	494	39	9	
1	0	0	0	0	506	507	0	497	38	9	
2	0	0	0	0	504	508	0	499	39	9	
3	0	0	0	0	505	508	0	500	39	9	
4	0	0	0	0	507	510	0	500	39	9	
5	0	0	0	0	506	511	0	499	39	9	
6	0	0	0	0	504	511	0	500	39	9	
7	0	0	0	0	507	510	0	500	39	9	
8	0	0	0	0	509	509	0	500	39	9	
9	0	0	0	0	506	507	0	500	38	9	
10	0	0	0	0	502	506	0	499	39	9	
11	0	0	0	0	498	508	0	499	39	9	
12	0	0	0	0	499	508	0	500	39	9	
13	0	0	0	0	497	509	0	497	39	8	
14	0	0	0	0	496	508	0	497	39	9	
15	0	0	0	0	498	508	0	497	39	9	
0	0	0	0	0	502	507	0	495	39	9	
1	0	0	0	0	505	507	0	496	38	9	
2	0	0	0	0	504	507	0	496	39	9	
3	0	0	0	0	502	507	0	496	39	9	
4	0	0	0	0	505	506	0	495	39	9	
5	0	0	0	0	508	506	0	495	39	8	
6	0	0	0	0	508	504	0	497	39	9	
7	0	0	0	0	508	505	0	497	39	9	
8	0	0	0	0	507	505	0	497	39	9	
9	0	0	0	0	507	506	0	497	38	9	
10	0	0	0	0	504	505	0	499	39	9	
11	0	0	0	0	501	504	0	497	39	9	
12	0	0	0	0	499	505	0	496	39	9	
13	0	0	0	0	498	506	0	495	39	8	
14	0	0	0	0	500	505	0	494	39	9	
15	0	0	0	0	502	504	0	495	39	9	
0	0	0	0	0	502	505	0	496	39	9	
1	0	0	0	0	506	507	0	496	38	9	
2	0	0	0	0	504	507	0	495	39	9	
3	0	0	0	0	504	508	0	495	39	9	
4	0	0	0	0	502	507	0	492	39	9	
5	0	0	0	0	506	505	0	492	39	9	
6	0	0	0	0	508	505	0	492	39	8	
7	0	0	0	0	505	503	0	489	39	9	
8	0	0	0	0	510	504	0	489	39	9	
9	0	0	0	0	508	504	0	488	38	9	
10	0	0	0	0	507	504	0	492	39	9	
11	0	0	0	0	504	503	0	491	39	9	
12	0	0	0	0	500	503	0	492	39	9	
13	0	0	0	0	498	504	0	495	39	9	
14	0	0	0	0	499	504	0	496	39	8	
15	0	0	0	0	500	504	0	498	39	9	
0	0	0	0	0	504	505	0	499	39	9	
1	0	0	0	0	502	504	0	500	38	9	
2	0	0	0	0	504	505	0	499	39	9	
3	0	0	0	0	504	506	0	500	39	9	
4	0	0	0	0	502	505	0	502	39	9	
5	0	0	0	0	501	505	0	502	39	9	
6	0	0	0	0	505	506	0	502	39	8	
7	0	0	0	0	509	506	0	502	39	9	
8	0	0	0	0	507	505	0	503	39	9	
9	0	0	0	0	509	504	0	502	38	9	
10	0	0	0	0	507	504	0	503	39	9	
11	0	0	0	0	506	504	0	520	39	9	
12	0	0	0	0	504	503	0	553	39	9	
13	0	0	0	0	500	503	0	568	39	9	
14	0	0	0	0	500	503	0	564	39	9	
15	0	0	0	0	498	504	0	571	39	8	
0	0	0	0	0	503	507	0	588	39	8	
1	0	0	0	0	504	507	0	582	38	9	
2	0	0	0	0	505	506	0	568	39	9	
3	0	0	0	0	508	507	0	575	39	9	
4	0	0	0	0	504	508	0	585	39	9	
5	0	0	0	0	504	508	0	573	39	9	
6	0	0	0	0	503	507	0	566	39	9	
7	0	0	0	0	506	508	0	577	39	8	
8	0	0	0	0	507	507	0	583	39	8	
9	0	0	0	0	507	508	0	569	38	9	
10	0	0	0	0	507	508	0	547	39	9	
11	0	0	0	0	507	507	0	529	39	9	
12	0	0	0	0	503	506	0	515	39	9	
13	0	0	0	0	502	507	0	507	39	9	
14	0	0	0	0	500	507	0	523	39	9	
15	0	0	0	0	501	507	0	551	39	8	
0	0	0	0	0	502	505	0	555	39	8	
1	0	0	0	0	499	505	0	543	38	9	
2	0	0	0	0	503	505	0	540	39	9	
3	0	0	0	0	505	508	0	544	39	9	
4	0	0	0	0	507	507	0	566	39	9	
5	0	0	0	0	505	506	0	563	39	9	
6	0	0	0	0	504	506	0	548	39	9	
7	0	0	0	0	504	505	0	531	39	8	
8	0	0	0	0	504	508	0	518	39	8	
9	0	0	0	0	505	507	0	505	38	9	
10	0	0	0	0	506	506	0	499	39	9	
11	0	0	0	0	509	506	0	512	39	9	
12	0	0	0	0	508	508	0	491	39	9	
13	0	0	0	0	503	509	0	490	39	9	
14	0	0	0	0	500	506	0	488	39	9	
15	0	0	0	0	500	506	0	489	39	8	
0	0	0	0	0	499	507	0	492	39	8	
1	0	0	0	0	498	506	0	493	38	8	
2	0	0	0	0	502	505	0	495	39	9	
3	0	0	0	0	503	506	0	495	39	9	
4	0	0	0	0	508	508	0	497	39	9	
5	0	0	0	0	506	506	0	497	39	9	
6	0	0	0	0	504	508	0	498	39	9	
7	0	0	0	0	506	508	0	498	39	8	
8	0	0	0	0	506	508	0	497	39	8	
9	0	0	0	0	508	508	0	497	38	8	
10	0	0	0	0	508	508	0	497	39	8	
11	0	0	0	0	508	508	0	497	39	9	
12	0	0	0	0	509	509	0	498	39	9	
13	0	0	0	0	506	508	0	513	39	9	
14	0	0	0	0	504	508	0	500	39	9	
15	0	0	0	0	499	508	0	502	39	8	
0	0	0	0	0	499	507	0	503	39	8	
1	0	0	0	0	500	506	0	503	38	8	
2	0	0	0	0	500	507	0	503	39	8	
3	0	0	0	0	501	508	0	503	39	9	
4	0	0	0	0	504	507	0	503	39	9	
5	0	0	0	0	503	506	0	503	39	9	
6	0	0	0	0	504	508	0	505	39	9	
7	0	0	0	0	504	508	0	504	39	9	
8	0	0	0	0	503	509	0	504	39	8	
9	0	0	0	0	504	508	0	505	38	8	
10	0	0	0	0	507	508	0	504	39	8	
11	0	0	0	0	509	507	0	505	39	8	
12	0	0	0	0	508	507	0	505	39	9	
13	0	0	0	0	506	507	0	504	39	9	
14	0	0	0	0	506	507	0	505	39	9	
15	0	0	0	0	499	508	0	507	39	9	
0	0	0	0	0	501	508	0	505	39	8	
1	0	0	0	0	496	507	0	503	38	8	
2	0	0	0	0	498	505	0	502	39	8	
3	0	0	0	0	501	504	0	500	39	8	
4	0	0	0	0	502	504	0	500	39	9	
5	0	0	0	0	504	504	0	499	39	9	
6	0	0	0	0	504	504	0	499	39	9	
7	0	0	0	0	504	505	0	499	39	9	
8	0	0	0	0	505	505	0	497	39	8	
9	0	0	0	0	505	506	0	499	38	8	
10	0	0	0	0	508	507	0	499	39	8	
11	0	0	0	0	508	506	0	505	39	8	
12	0	0	0	0	509	506	0	498	39	9	
13	0	0	0	0	507	506	0	498	39	9	
14	0	0	0	0	506	505	0	496	39	9	
15	0	0	0	0	505	506	0	497	39	8	
0	0	0	0	0	500	506	0	515	39	8	
1	0	0	0	0	500	506	0	545	38	8	
2	0	0	0	0	501	504	0	560	39	8	
3	0	0	0	0	501	506	0	552	39	8	
4	0	0	0	0	502	508	0	539	39	8	
5	0	0	0	0	503	507	0	523	39	8	
6	0	0	0	0	504	507	0	512	39	9	
7	0	0	0	0	504	508	0	503	39	9	
8	0	0	0	0	502	507	0	498	39	8	
9	0	0	0	0	505	505	0	494	38	8	
10	0	0	0	0	505	504	0	492	39	8	
11	0	0	0	0	507	505	0	492	39	8	
12	0	0	0	0	508	506	0	490	39	8	
13	0	0	0	0	508	508	0	489	39	9	
14	0	0	0	0	508	508	0	488	39	8	
15	0	0	0	0	504	508	0	487	39	8	
0	0	0	0	0	502	508	0	489	39	8	
1	0	0	0	0	500	509	0	486	38	8	
2	0	0	0	0	498	510	0	487	39	8	
3	0	0	0	0	499	508	0	484	39	8	
4	0	0	0	0	499	507	0	485	39	8	
5	0	0	0	0	502	509	0	486	39	8	
6	0	0	0	0	506	510	0	486	39	8	
7	0	0	0	0	506	509	0	489	39	8	
8	0	0	0	0	505	507	0	489	39	8	
9	0	0	0	0	504	506	0	506	38	8	
10	0	0	0	0	504	506	0	537	39	8	
11	0	0	0	0	506	509	0	549	39	8	
12	0	0	0	0	507	510	0	544	39	8	
13	0	0	0	0	508	511	0	553	39	8	
14	0	0	0	0	510	511	0	573	39	8	
15	0	0	0	0	510	511	0	568	39	8	
0	0	0	0	0	503	509	0	550	39	8	
1	0	0	0	0	500	510	0	534	38	8	
2	0	0	0	0	500	509	0	519	39	8	
3	0	0	0	0	501	508	0	507	39	8	
4	0	0	0	0	500	507	0	501	39	8	
5	0	0	0	0	502	507	0	509	39	8	
6	0	0	0	0	504	507	0	494	39	8	
7	0	0	0	0	505	507	0	492	39	8	
8	0	0	0	0	503	507	0	491	39	8	
9	0	0	0	0	503	508	0	491	38	8	
10	0	0	0	0	503	508	0	489	39	8	
11	0	0	0	0	502	507	0	492	39	8	
12	0	0	0	0	507	506	0	506	39	8	
13	0	0	0	0	504	505	0	492	39	8	
14	0	0	0	0	507	505	0	495	39	8	
15	0	0	0	0	509	505	0	495	39	8	
0	0	0	0	0	507	504	0	496	39	8	
1	0	0	0	0	505	505	0	497	38	8	
2	0	0	0	0	499	505	0	497	39	8	
3	0	0	0	0	501	505	0	497	39	8	
4	0	0	0	0	498	505	0	496	39	8	
5	0	0	0	0	498	505	0	500	39	8	
6	0	0	0	0	502	505	0	499	38	8	
7	0	0	0	0	504	506	0	499	38	8	
8	0	0	0	0	504	507	0	502	39	8	
9	0	0	0	0	506	505	0	503	38	8	
10	0	0	0	0	505	504	0	519	39	8	
11	0	0	0	0	504	505	0	504	38	8	
12	0	0	0	0	501	505	0	503	38	8	
13	0	0	0	0	505	507	0	501	39	8	
14	0	0	0	0	508	507	0	500	39	8	
15	0	0	0	0	508	506	0	502	39	8	
0	0	0	0	0	507	507	0	502	38	8	
1	0	0	0	0	507	508	0	500	38	8	
2	0	0	0	0	503	508	0	499	39	8	
3	0	0	0	0	501	506	0	500	39	8	
4	0	0	0	0	500	507	0	499	39	8	
5	0	0	0	0	499	505	0	497	39	8	
6	0	0	0	0	500	506	0	500	39	8	
7	0	0	0	0	501	505	0	499	39	8	
8	0	0	0	0	504	507	0	515	39	8	
9	0	0	0	0	504	506	0	499	38	8	
10	0	0	0	0	504	506	0	499	39	8	
11	0	0	0	0	505	504	0	499	39	8	
12	0	0	0	0	504	506	0	500	39	8	
13	0	0	0	0	506	507	0	503	39	8	
14	0	0	0	0	506	508	0	503	39	8	
15	0	0	0	0	509	509	0	503	39	8	
0	0	0	0	0	509	509	0	502	39	8	
1	0	0	0	0	508	508	0	502	38	8	
2	0	0	0	0	506	507	0	502	39	8	
3	0	0	0	0	503	506	0	502	39	8	
4	0	0	0	0	500	505	0	503	39	8	
5	0	0	0	0	500	504	0	502	39	8	
6	0	0	0	0	499	503	0	517	39	8	
7	0	0	0	0	500	505	0	547	39	8	
8	0	0	0	0	504	504	0	571	39	8	
9	0	0	0	0	505	505	0	566	38	8	
10	0	0	0	0	504	504	0	571	39	8	
11	0	0	0	0	505	504	0	590	39	8	
12	0	0	0	0	505	504	0	594	39	8	
13	0	0	0	0	504	504	0	578	39	8	
14	0	0	0	0	507	508	0	557	39	8	
15	0	0	0	0	506	509	0	539	39	8	
0	0	0	0	0	507	510	0	526	39	8	
1	0	0	0	0	508	508	0	521	38	8	
2	0	0	0	0	509	508	0	543	39	8	
3	0	0	0	0	503	507	0	567	39	8	
4	0	0	0	0	499	507	0	563	39	8	
5	0	0	0	0	500	505	0	562	39	8	
6	0	0	0	0	498	505	0	578	39	8	
7	0	0	0	0	499	504	0	588	39	8	
8	0	0	0	0	504	505	0	576	39	8	
9	0	0	0	0	503	504	0	574	38	8	
10	0	0	0	0	505	505	0	586	39	8	
11	0	0	0	0	508	506	0	585	39	8	
12	0	0	0	0	506	507	0	570	39	8	
13	0	0	0	0	504	507	0	589	39	8	
14	0	0	0	0	503	505	0	585	39	8	
15	0	0	0	0	507	506	0	578	39	8	
0	0	0	0	0	505	507	0	567	39	8	
1	0	0	0	0	507	507	0	575	38	9	
2	0	0	0	0	508	509	0	586	39	8	
3	0	0	0	0	504	507	0	572	39	8	
4	0	0	0	0	501	505	0	566	39	8	
5	0	0	0	0	500	504	0	575	39	8	
6	0	0	0	0	498	504	0	580	39	8	
7	0	0	0	0	502	505	0	563	39	8	
8	0	0	0	0	500	507	0	558	39	8	
9	0	0	0	0	503	507	0	570	38	8	
10	0	0	0	0	502	507	0	569	39	8	
11	0	0	0	0	507	509	0	553	39	9	
12	0	0	0	0	504	510	0	554	39	9	
13	0	0	0	0	503	507	0	567	39	8	
14	0	0	0	0	505	507	0	560	39	8	
15	0	0	0	0	506	506	0	547	39	8	
0	0	0	0	0	510	507	0	556	39	8	
1	0	0	0	0	504	507	0	567	38	8	
2	0	0	0	0	510	506	0	552	39	8	
3	0	0	0	0	510	506	0	547	39	8	
4	0	0	0	0	507	507	0	560	39	9	
5	0	0	0	0	503	507	0	565	39	8	
6	0	0	0	0	501	507	0	550	39	8	
7	0	0	0	0	501	507	0	548	39	8	
8	0	0	0	0	499	506	0	560	38	8	
9	0	0	0	0	500	504	0	559	38	8	
10	0	0	0	0	503	506	0	544	39	9	
11	0	0	0	0	504	507	0	546	39	8	
12	0	0	0	0	505	507	0	561	39	9	
13	0	0	0	0	504	508	0	551	39	9	
14	0	0	0	0	505	505	0	539	39	8	
15	0	0	0	0	506	504	0	547	39	8	
0	0	0	0	0	505	505	0	559	38	8	
1	0	0	0	0	508	504	0	544	38	8	
2	0	0	0	0	506	505	0	537	39	9	
3	0	0	0	0	508	507	0	550	39	8	
4	0	0	0	0	507	508	0	557	39	9	
5	0	0	0	0	502	506	0	543	39	8	
6	0	0	0	0	498	504	0	539	39	8	
7	0	0	0	0	500	503	0	552	39	8	
8	0	0	0	0	499	504	0	551	39	8	
9	0	0	0	0	500	504	0	535	38	8	
10	0	0	0	0	500	505	0	536	39	8	
11	0	0	0	0	503	505	0	548	39	8	
12	0	0	0	0	506	506	0	549	39	9	
13	0	0	0	0	505	507	0	525	39	9	
14	0	0	0	0	503	507	0	531	39	8	
15	0	0	0	0	504	507	0	541	39	8	
0	0	0	0	0	507	506	0	527	39	8	
1	0	0	0	0	509	505	0	521	38	8	
2	0	0	0	0	508	505	0	531	39	8	
3	0	0	0	0	510	505	0	539	39	9	
4	0	0	0	0	510	507	0	522	39	9	
5	0	0	0	0	507	508	0	521	39	9	
6	0	0	0	0	502	508	0	535	39	8	
7	0	0	0	0	499	508	0	535	39	8	
8	0	0	0	0	501	508	0	518	39	8	
9	0	0	0	0	499	508	0	499	38	8	
10	0	0	0	0	499	509	0	483	39	8	
11	0	0	0	0	504	508	0	468	39	9	
12	0	0	0	0	504	508	0	463	39	9	
13	0	0	0	0	504	506	0	481	39	9	
14	0	0	0	0	506	505	0	506	39	8	
15	0	0	0	0	503	505	0	505	39	8	
0	0	0	0	0	502	505	0	507	39	8	
1	0	0	0	0	508	504	0	525	38	8	
2	0	0	0	0	507	505	0	535	39	8	
3	0	0	0	0	508	507	0	520	39	8	
4	0	0	0	0	508	507	0	518	39	8	
5	0	0	0	0	508	509	0	533	39	8	
6	0	0	0	0	506	508	0	535	39	8	
7	0	0	0	0	501	510	0	521	39	8	
8	0	0	0	0	499	510	0	522	39	8	
9	0	0	0	0	501	510	0	537	38	8	
10	0	0	0	0	499	511	0	527	39	8	
11	0	0	0	0	500	510	0	518	39	8	
12	0	0	0	0	504	509	0	526	39	9	
13	0	0	0	0	503	508	0	538	39	8	
14	0	0	0	0	505	510	0	525	39	8	
15	0	0	0	0	503	509	0	516	39	8	
0	0	0	0	0	504	508	0	528	39	8	
1	0	0	0	0	506	508	0	533	38	8	
2	0	0	0	0	504	508	0	519	39	8	
3	0	0	0	0	510	507	0	516	38	8	
4	0	0	0	0	507	506	0	531	38	8	
5	0	0	0	0	507	509	0	529	39	8	
6	0	0	0	0	507	509	0	516	38	8	
7	0	0	0	0	504	508	0	521	39	8	
8	0	0	0	0	502	508	0	537	39	8	
9	0	0	0	0	500	508	0	529	38	8	
10	0	0	0	0	500	507	0	519	38	8	
11	0	0	0	0	498	506	0	528	39	8	
12	0	0	0	0	501	505	0	539	39	8	
13	0	0	0	0	503	506	0	526	39	8	
14	0	0	0	0	505	509	0	522	39	8	
15	0	0	0	0	504	508	0	531	39	8	
0	0	0	0	0	502	509	0	537	39	8	
1	0	0	0	0	505	510	0	522	38	8	
2	0	0	0	0	507	509	0	519	39	8	
3	0	0	0	0	508	510	0	531	38	8	
4	0	0	0	0	508	508	0	529	39	8	
5	0	0	0	0	508	505	0	515	39	8	
6	0	0	0	0	508	505	0	519	39	8	
7	0	0	0	0	508	504	0	534	38	8	
8	0	0	0	0	503	504	0	527	39	8	
9	0	0	0	0	500	505	0	516	38	8	
10	0	0	0	0	499	504	0	523	39	8	
11	0	0	0	0	498	504	0	535	39	8	
12	0	0	0	0	500	505	0	525	39	8	
13	0	0	0	0	504	506	0	518	39	8	
14	0	0	0	0	503	506	0	531	39	8	
15	0	0	0	0	505	505	0	537	39	8	
0	0	0	0	0	506	505	0	524	39	8	
1	0	0	0	0	506	506	0	524	38	8	
2	0	0	0	0	506	507	0	538	39	8	
3	0	0	0	0	507	505	0	537	39	8	
4	0	0	0	0	508	506	0	523	39	8	
5	0	0	0	0	509	505	0	526	39	8	
6	0	0	0	0	510	504	0	540	39	8	
7	0	0	0	0	509	504	0	533	39	8	
8	0	0	0	0	506	503	0	519	39	8	
9	0	0	0	0	503	503	0	526	38	8	
10	0	0	0	0	499	502	0	538	39	8	
11	0	0	0	0	498	505	0	526	39	8	
12	0	0	0	0	497	505	0	519	39	8	
13	0	0	0	0	500	505	0	529	39	8	
14	0	0	0	0	501	505	0	537	39	8	
15	0	0	0	0	503	504	0	522	39	8	
0	0	0	0	0	505	505	0	520	39	8	
1	0	0	0	0	507	504	0	536	38	8	
2	0	0	0	0	504	504	0	535	39	8	
3	0	0	0	0	505	505	0	519	39	8	
4	0	0	0	0	505	505	0	521	39	8	
5	0	0	0	0	508	505	0	545	39	8	
6	0	0	0	0	504	507	0	531	39	8	
7	0	0	0	0	507	507	0	521	39	8	
8	0	0	0	0	507	505	0	528	39	8	
9	0	0	0	0	501	507	0	541	38	8	
10	0	0	0	0	501	508	0	528	39	8	
11	0	0	0	0	500	509	0	522	39	8	
12	0	0	0	0	502	508	0	534	39	8	
13	0	0	0	0	500	508	0	542	39	8	
14	0	0	0	0	503	508	0	528	39	8	
15	0	0	0	0	503	508	0	526	39	8	
0	0	0	0	0	505	509	0	541	39	8	
1	0	0	0	0	505	508	0	539	38	8	
2	0	0	0	0	504	509	0	524	39	8	
3	0	0	0	0	505	510	0	526	39	8	
4	0	0	0	0	505	509	0	539	39	8	
5	0	0	0	0	506	510	0	534	39	8	
6	0	0	0	0	508	508	0	520	39	8	
7	0	0	0	0	508	508	0	529	39	8	
8	0	0	0	0	510	508	0	542	39	8	
9	0	0	0	0	507	507	0	530	38	8	
10	0	0	0	0	503	508	0	524	39	8	
11	0	0	0	0	500	509	0	534	39	8	
12	0	0	0	0	498	509	0	540	39	8	
13	0	0	0	0	500	508	0	526	39	8	
14	0	0	0	0	501	508	0	524	39	8	
15	0	0	0	0	504	507	0	537	39	8	
0	0	0	0	0	504	507	0	536	39	8	
1	0	0	0	0	507	506	0	524	39	8	
2	0	0	0	0	508	505	0	525	39	8	
3	0	0	0	0	506	505	0	539	39	8	
4	0	0	0	0	503	505	0	531	39	8	
5	0	0	0	0	503	505	0	512	39	8	
6	0	0	0	0	504	507	0	496	39	8	
7	0	0	0	0	506	508	0	479	39	8	
8	0	0	0	0	506	508	0	482	39	8	
9	0	0	0	0	507	506	0	471	39	8	
10	0	0	0	0	505	504	0	495	39	8	
11	0	0	0	0	500	505	0	513	39	8	
12	0	0	0	0	501	504	0	510	39	8	
13	0	0	0	0	500	504	0	515	39	8	
14	0	0	0	0	499	505	0	532	39	8	
15	0	0	0	0	501	506	0	535	39	8	
0	0	0	0	0	501	506	0	518	39	8	
1	0	0	0	0	504	505	0	521	39	8	
2	0	0	0	0	503	504	0	537	39	8	
3	0	0	0	0	505	504	0	532	39	8	
4	0	0	0	0	504	505	0	521	39	8	
5	0	0	0	0	504	506	0	530	39	8	
6	0	0	0	0	507	505	0	540	39	8	
7	0	0	0	0	508	506	0	520	39	8	
8	0	0	0	0	508	506	0	507	39	8	
9	0	0	0	0	510	507	0	514	38	8	
10	0	0	0	0	506	508	0	523	39	8	
11	0	0	0	0	507	507	0	515	39	8	
12	0	0	0	0	504	506	0	513	39	8	
13	0	0	0	0	500	506	0	531	39	8	
14	0	0	0	0	504	506	0	535	39	8	
15	0	0	0	0	502	505	0	519	39	8	
0	0	0	0	0	502	504	0	503	39	8	
1	0	0	0	0	503	503	0	487	38	8	
2	0	0	0	0	504	504	0	476	39	8	
3	0	0	0	0	507	504	0	462	39	8	
4	0	0	0	0	508	504	0	457	39	8	
5	0	0	0	0	505	504	0	452	39	8	
6	0	0	0	0	505	504	0	452	39	8	
7	0	0	0	0	506	506	0	465	39	8	
8	0	0	0	0	506	507	0	451	39	8	
9	0	0	0	0	510	506	0	454	38	8	
10	0	0	0	0	509	506	0	451	38	8	
11	0	0	0	0	506	505	0	451	38	8	
12	0	0	0	0	503	505	0	452	38	8	
13	0	0	0	0	499	505	0	454	39	8	
14	0	0	0	0	498	505	0	456	38	8	
15	0	0	0	0	500	505	0	454	38	8	
0	0	0	0	0	499	505	0	461	38	8	
1	0	0	0	0	502	506	0	471	38	8	
2	0	0	0	0	502	506	0	498	38	8	
3	0	0	0	0	505	506	0	521	38	8	
4	0	0	0	0	503	505	0	516	38	8	
5	0	0	0	0	504	505	0	521	39	8	
6	0	0	0	0	504	504	0	493	38	8	
7	0	0	0	0	506	504	0	484	38	8	
8	0	0	0	0	507	505	0	478	38	8	
9	0	0	0	0	510	507	0	468	38	8	
10	0	0	0	0	508	509	0	465	38	8	
11	0	0	0	0	508	510	0	462	38	8	
12	0	0	0	0	508	510	0	463	38	8	
13	0	0	0	0	502	509	0	462	39	8	
14	0	0	0	0	498	509	0	460	39	8	
15	0	0	0	0	499	509	0	462	39	8	
0	0	0	0	0	501	511	0	460	39	8	
1	0	0	0	0	502	509	0	458	38	8	
2	0	0	0	0	504	506	0	460	39	8	
3	0	0	0	0	504	506	0	460	39	8	
4	0	0	0	0	503	508	0	462	39	8	
5	0	0	0	0	504	509	0	463	39	8	
6	0	0	0	0	503	508	0	461	39	8	
7	0	0	0	0	505	509	0	465	39	8	
8	0	0	0	0	507	508	0	463	39	8	
9	0	0	0	0	505	508	0	463	38	8	
10	0	0	0	0	506	507	0	464	39	8	
11	0	0	0	0	507	507	0	463	39	8	
12	0	0	0	0	510	505	0	467	39	8	
13	0	0	0	0	505	505	0	466	39	8	
14	0	0	0	0	501	506	0	466	39	8	
15	0	0	0	0	500	504	0	478	39	8	
0	0	0	0	0	499	505	0	509	39	8	
1	0	0	0	0	500	506	0	531	38	8	
2	0	0	0	0	500	507	0	527	39	8	
3	0	0	0	0	504	508	0	531	39	8	
4	0	0	0	0	504	508	0	548	39	8	
5	0	0	0	0	506	509	0	551	39	8	
6	0	0	0	0	504	508	0	538	39	8	
7	0	0	0	0	504	507	0	541	39	8	
8	0	0	0	0	503	506	0	556	39	8	
9	0	0	0	0	506	507	0	548	38	8	
10	0	0	0	0	508	507	0	534	39	8	
11	0	0	0	0	511	507	0	542	39	8	
12	0	0	0	0	508	507	0	554	39	8	
13	0	0	0	0	508	506	0	540	39	8	
14	0	0	0	0	503	505	0	532	39	8	
15	0	0	0	0	500	503	0	543	39	8	
0	0	0	0	0	499	503	0	549	39	8	
1	0	0	0	0	500	502	0	536	38	8	
2	0	0	0	0	499	500	0	534	39	8	
3	0	0	0	0	502	502	0	548	39	8	
4	0	0	0	0	504	504	0	547	39	8	
5	0	0	0	0	506	505	0	533	39	8	
6	0	0	0	0	507	506	0	536	39	8	
7	0	0	0	0	505	505	0	550	39	8	
8	0	0	0	0	504	506	0	541	39	8	
9	0	0	0	0	507	507	0	530	38	8	
10	0	0	0	0	507	506	0	536	39	8	
11	0	0	0	0	509	505	0	549	39	8	
12	0	0	0	0	509	505	0	538	39	8	
13	0	0	0	0	510	505	0	518	39	8	
14	0	0	0	0	504	504	0	501	39	8	
15	0	0	0	0	501	504	0	489	39	8	
0	0	0	0	0	500	504	0	476	39	8	
1	0	0	0	0	499	504	0	487	38	8	
2	0	0	0	0	501	504	0	514	39	8	
3	0	0	0	0	501	504	0	524	39	8	
4	0	0	0	0	500	507	0	519	39	9	
5	0	0	0	0	503	506	0	528	39	8	
6	0	0	0	0	505	507	0	547	39	8	
7	0	0	0	0	504	507	0	543	39	8	
8	0	0	0	0	501	508	0	533	39	8	
9	0	0	0	0	502	507	0	542	38	8	
10	0	0	0	0	504	507	0	553	39	8	
11	0	0	0	0	503	505	0	539	39	8	
12	0	0	0	0	506	506	0	530	39	8	
13	0	0	0	0	509	504	0	540	39	8	
14	0	0	0	0	508	506	0	545	39	8	
15	0	0	0	0	504	506	0	529	39	8	
0	0	0	0	0	502	505	0	525	39	8	
1	0	0	0	0	503	509	0	526	38	8	
2	0	0	0	0	501	509	0	531	39	8	
3	0	0	0	0	501	508	0	524	39	8	
4	0	0	0	0	502	508	0	526	39	8	
5	0	0	0	0	503	508	0	524	39	8	
6	0	0	0	0	505	508	0	520	39	8	
7	0	0	0	0	505	507	0	529	39	8	
8	0	0	0	0	506	507	0	524	39	8	
9	0	0	0	0	504	507	0	529	38	8	
10	0	0	0	0	504	507	0	527	39	8	
11	0	0	0	0	506	507	0	526	39	8	
12	0	0	0	0	505	505	0	531	39	8	
13	0	0	0	0	507	504	0	524	39	8	
14	0	0	0	0	507	503	0	530	39	8	
15	0	0	0	0	505	502	0	530	39	8	
0	0	0	0	0	505	502	0	527	39	8	
1	0	0	0	0	502	503	0	532	38	8	
2	0	0	0	0	499	504	0	527	39	8	
3	0	0	0	0	500	504	0	532	39	8	
4	0	0	0	0	498	505	0	531	39	8	
5	0	0	0	0	502	505	0	528	39	8	
6	0	0	0	0	505	506	0	537	38	8	
7	0	0	0	0	505	506	0	529	38	8	
8	0	0	0	0	504	508	0	535	38	8	
9	0	0	0	0	503	507	0	534	38	8	
10	0	0	0	0	504	506	0	531	39	8	
11	0	0	0	0	508	506	0	536	38	8	
12	0	0	0	0	506	507	0	529	39	8	
13	0	0	0	0	510	506	0	536	39	8	
14	0	0	0	0	508	505	0	536	38	8	
15	0	0	0	0	508	505	0	532	38	8	
0	0	0	0	0	507	505	0	537	38	8	
1	0	0	0	0	503	505	0	529	38	8	
2	0	0	0	0	500	504	0	531	39	8	
3	0	0	0	0	501	506	0	529	39	8	
4	0	0	0	0	500	505	0	527	39	8	
5	0	0	0	0	501	505	0	534	39	8	
6	0	0	0	0	502	504	0	527	39	8	
7	0	0	0	0	505	503	0	532	39	8	
8	0	0	0	0	505	503	0	545	39	8	
9	0	0	0	0	504	501	0	529	38	8	
10	0	0	0	0	503	502	0	541	39	8	
11	0	0	0	0	504	502	0	547	39	8	
12	0	0	0	0	506	505	0	531	39	8	
13	0	0	0	0	507	506	0	528	39	8	
14	0	0	0	0	508	507	0	541	39	8	
15	0	0	0	0	508	506	0	540	39	8	
0	0	0	0	0	505	506	0	526	39	8	
1	0	0	0	0	504	506	0	528	38	8	
2	0	0	0	0	501	505	0	543	39	8	
3	0	0	0	0	500	505	0	534	39	8	
4	0	0	0	0	499	506	0	521	39	8	
5	0	0	0	0	501	507	0	527	39	8	
6	0	0	0	0	500	507	0	539	39	8	
7	0	0	0	0	500	506	0	521	39	8	
8	0	0	0	0	504	507	0	510	39	8	
9	0	0	0	0	504	508	0	521	38	8	
10	0	0	0	0	504	507	0	529	39	8	
11	0	0	0	0	504	505	0	515	39	8	
12	0	0	0	0	505	504	0	512	39	8	
13	0	0	0	0	505	504	0	519	39	8	
14	0	0	0	0	505	505	0	515	39	8	
15	0	0	0	0	507	505	0	499	39	8	
0	0	0	0	0	508	504	0	503	39	8	
1	0	0	0	0	506	507	0	522	38	8	
2	0	0	0	0	502	508	0	519	39	8	
3	0	0	0	0	501	508	0	511	39	8	
4	0	0	0	0	500	508	0	518	39	8	
5	0	0	0	0	502	506	0	523	39	8	
6	0	0	0	0	502	506	0	505	39	8	
7	0	0	0	0	504	505	0	494	39	8	
8	0	0	0	0	504	505	0	501	39	8	
9	0	0	0	0	504	508	0	506	38	8	
10	0	0	0	0	503	508	0	496	39	8	
11	0	0	0	0	502	506	0	496	39	8	
12	0	0	0	0	504	507	0	489	39	8	
13	0	0	0	0	505	511	0	478	39	8	
14	0	0	0	0	508	510	0	469	39	8	
15	0	0	0	0	508	511	0	457	39	8	
0	0	0	0	0	509	511	0	450	39	8	
1	0	0	0	0	509	510	0	439	38	8	
2	0	0	0	0	506	508	0	439	39	8	
3	0	0	0	0	503	507	0	435	39	8	
4	0	0	0	0	503	506	0	432	39	8	
5	0	0	0	0	500	507	0	431	39	8	
6	0	0	0	0	501	508	0	433	39	8	
7	0	0	0	0	502	507	0	430	38	8	
8	0	0	0	0	503	508	0	425	38	8	
9	0	0	0	0	503	507	0	422	38	8	
10	0	0	0	0	503	508	0	426	38	8	
11	0	0	0	0	502	508	0	432	38	8	
12	0	0	0	0	504	507	0	438	38	8	
13	0	0	0	0	504	507	0	436	39	8	
14	0	0	0	0	508	505	0	436	38	8	
15	0	0	0	0	506	506	0	449	38	8	
0	0	0	0	0	508	506	0	430	39	8	
1	0	0	0	0	507	507	0	433	38	8	
2	0	0	0	0	506	507	0	431	39	8	
3	0	0	0	0	503	505	0	432	38	8	
4	0	0	0	0	500	506	0	437	39	8	
5	0	0	0	0	500	507	0	438	39	8	
6	0	0	0	0	502	504	0	446	39	8	
7	0	0	0	0	501	504	0	470	39	8	
8	0	0	0	0	500	505	0	483	39	8	
9	0	0	0	0	503	504	0	499	38	8	
10	0	0	0	0	505	506	0	517	39	8	
11	0	0	0	0	506	505	0	519	39	8	
12	0	0	0	0	504	504	0	531	39	8	
13	0	0	0	0	505	505	0	527	39	8	
14	0	0	0	0	507	505	0	528	39	8	
15	0	0	0	0	507	504	0	532	39	8	
0	0	0	0	0	507	505	0	527	39	8	
1	0	0	0	0	508	507	0	536	38	8	
2	0	0	0	0	508	507	0	530	39	8	
3	0	0	0	0	510	508	0	532	39	8	
4	0	0	0	0	502	507	0	536	39	8	
5	0	0	0	0	501	508	0	529	39	8	
6	0	0	0	0	499	508	0	537	39	8	
7	0	0	0	0	502	508	0	531	39	8	
8	0	0	0	0	503	510	0	532	39	8	
9	0	0	0	0	503	510	0	533	38	8	
10	0	0	0	0	504	509	0	526	39	8	
11	0	0	0	0	504	508	0	531	39	8	
12	0	0	0	0	505	509	0	525	39	8	
13	0	0	0	0	505	510	0	526	39	8	
14	0	0	0	0	505	510	0	527	39	8	
15	0	0	0	0	505	508	0	520	39	8	
0	0	0	0	0	507	509	0	527	39	8	
1	0	0	0	0	508	509	0	521	38	8	
2	0	0	0	0	508	509	0	519	39	8	
3	0	0	0	0	509	509	0	520	39	8	
4	0	0	0	0	506	508	0	513	39	9	
5	0	0	0	0	502	508	0	519	39	8	
6	0	0	0	0	499	508	0	515	39	8	
7	0	0	0	0	499	509	0	516	39	8	
8	0	0	0	0	499	509	0	520	39	8	
9	0	0	0	0	499	509	0	514	38	8	
10	0	0	0	0	501	508	0	522	39	8	
11	0	0	0	0	504	507	0	519	39	8	
12	0	0	0	0	504	505	0	520	39	9	
13	0	0	0	0	502	506	0	523	39	8	
14	0	0	0	0	502	506	0	516	39	8	
15	0	0	0	0	503	506	0	525	39	8	
0	0	0	0	0	504	508	0	519	39	8	
1	0	0	0	0	510	508	0	519	38	8	
2	0	0	0	0	509	505	0	523	39	8	
3	0	0	0	0	511	505	0	517	39	8	
4	0	0	0	0	510	506	0	527	39	8	
5	0	0	0	0	507	506	0	524	39	8	
6	0	0	0	0	504	504	0	525	39	8	
7	0	0	0	0	501	506	0	526	39	8	
8	0	0	0	0	500	505	0	515	39	8	
9	0	0	0	0	501	505	0	521	38	8	
10	0	0	0	0	501	505	0	516	39	8	
11	0	0	0	0	500	506	0	521	39	8	
12	0	0	0	0	503	506	0	525	39	9	
13	0	0	0	0	506	507	0	519	39	8	
14	0	0	0	0	506	507	0	527	39	8	
15	0	0	0	0	505	505	0	521	39	8	
0	0	0	0	0	507	508	0	521	39	8	
1	0	0	0	0	506	508	0	523	38	8	
2	0	0	0	0	507	507	0	516	39	8	
3	0	0	0	0	508	507	0	525	39	8	
4	0	0	0	0	509	507	0	523	39	8	
5	0	0	0	0	505	508	0	525	39	9	
6	0	0	0	0	502	507	0	527	39	9	
7	0	0	0	0	501	507	0	518	39	8	
8	0	0	0	0	502	506	0	521	39	8	
9	0	0	0	0	500	507	0	512	38	8	
10	0	0	0	0	503	507	0	517	39	8	
11	0	0	0	0	503	508	0	513	39	9	
12	0	0	0	0	504	508	0	508	39	9	
13	0	0	0	0	505	506	0	515	39	9	
14	0	0	0	0	504	508	0	508	39	8	
15	0	0	0	0	504	508	0	511	39	8	
0	0	0	0	0	504	509	0	513	39	8	
1	0	0	0	0	505	508	0	504	39	8	
2	0	0	0	0	507	508	0	513	39	8	
3	0	0	0	0	507	507	0	512	39	8	
4	0	0	0	0	510	507	0	514	39	9	
5	0	0	0	0	509	507	0	519	39	9	
6	0	0	0	0	504	508	0	511	39	9	
7	0	0	0	0	502	507	0	515	39	8	
8	0	0	0	0	499	505	0	506	39	8	
9	0	0	0	0	498	505	0	488	38	8	
10	0	0	0	0	500	506	0	473	39	8	
11	0	0	0	0	500	506	0	457	39	8	
12	0	0	0	0	502	507	0	454	39	9	
13	0	0	0	0	503	508	0	469	39	9	
14	0	0	0	0	504	508	0	483	39	9	
15	0	0	0	0	505	506	0	494	39	9	
0	0	0	0	0	505	508	0	510	39	8	
1	0	0	0	0	505	509	0	508	38	8	
2	0	0	0	0	508	509	0	516	39	8	
3	0	0	0	0	506	508	0	514	39	8	
4	0	0	0	0	509	509	0	510	39	9	
5	0	0	0	0	508	509	0	505	39	8	
6	0	0	0	0	508	507	0	517	39	9	
7	0	0	0	0	504	508	0	511	39	9	
8	0	0	0	0	500	508	0	507	39	8	
9	0	0	0	0	500	509	0	501	38	8	
10	0	0	0	0	500	511	0	497	39	8	
11	0	0	0	0	501	510	0	497	39	8	
12	0	0	0	0	500	508	0	496	39	8	
13	0	0	0	0	502	508	0	499	39	8	
14	0	0	0	0	504	509	0	490	39	9	
15	0	0	0	0	503	508	0	477	39	9	
0	0	0	0	0	504	507	0	469	39	8	
1	0	0	0	0	504	505	0	454	38	8	
2	0	0	0	0	506	506	0	451	39	8	
3	0	0	0	0	507	506	0	443	39	8	
4	0	0	0	0	507	506	0	443	39	8	
5	0	0	0	0	510	507	0	440	39	9	
6	0	0	0	0	507	508	0	440	39	8	
7	0	0	0	0	508	509	0	437	39	9	
8	0	0	0	0	503	509	0	433	39	8	
9	0	0	0	0	502	509	0	432	38	8	
10	0	0	0	0	501	510	0	430	39	8	
11	0	0	0	0	499	509	0	434	39	8	
12	0	0	0	0	500	508	0	433	39	8	
13	0	0	0	0	501	506	0	463	39	8	
14	0	0	0	0	503	506	0	473	39	8	
15	0	0	0	0	503	509	0	482	39	9	
0	0	0	0	0	506	508	0	497	39	8	
1	0	0	0	0	505	508	0	503	38	8	
2	0	0	0	0	505	507	0	507	39	8	
3	0	0	0	0	504	506	0	520	39	8	
4	0	0	0	0	507	504	0	517	39	8	
5	0	0	0	0	508	506	0	512	39	8	
6	0	0	0	0	505	507	0	508	39	8	
7	0	0	0	0	508	507	0	503	39	8	
8	0	0	0	0	504	507	0	493	39	8	
9	0	0	0	0	504	508	0	481	38	8	
10	0	0	0	0	500	508	0	467	39	8	
11	0	0	0	0	500	507	0	457	39	8	
12	0	0	0	0	501	507	0	450	39	8	
13	0	0	0	0	501	508	0	450	39	8	
14	0	0	0	0	503	508	0	445	39	8	
15	0	0	0	0	503	508	0	445	39	8	
0	0	0	0	0	504	507	0	438	39	8	
1	0	0	0	0	506	505	0	432	38	8	
2	0	0	0	0	504	504	0	436	39	8	
3	0	0	0	0	507	505	0	435	39	8	
4	0	0	0	0	506	507	0	438	39	8	
5	0	0	0	0	508	507	0	438	39	8	
6	0	0	0	0	509	507	0	451	39	8	
7	0	0	0	0	506	508	0	473	39	8	
8	0	0	0	0	507	510	0	483	39	8	
9	0	0	0	0	505	509	0	496	38	8	
10	0	0	0	0	501	508	0	504	39	8	
11	0	0	0	0	501	507	0	511	39	8	
12	0	0	0	0	501	505	0	522	39	8	
13	0	0	0	0	499	505	0	519	39	8	
14	0	0	0	0	503	503	0	527	39	8	
15	0	0	0	0	505	505	0	525	39	8	
0	0	0	0	0	504	505	0	520	39	8	
1	0	0	0	0	505	505	0	527	38	8	
2	0	0	0	0	504	505	0	523	39	8	
3	0	0	0	0	503	506	0	531	39	8	
4	0	0	0	0	505	507	0	533	39	8	
5	0	0	0	0	505	507	0	531	39	8	
6	0	0	0	0	506	505	0	539	39	8	
7	0	0	0	0	505	504	0	532	39	8	
8	0	0	0	0	508	504	0	536	39	8	
9	0	0	0	0	507	504	0	534	38	8	
10	0	0	0	0	502	504	0	528	39	8	
11	0	0	0	0	502	502	0	522	39	8	
12	0	0	0	0	499	503	0	518	39	8	
13	0	0	0	0	501	505	0	515	39	8	
14	0	0	0	0	499	505	0	502	39	8	
15	0	0	0	0	503	507	0	489	39	8	
0	0	0	0	0	505	507	0	479	39	8	
1	0	0	0	0	505	507	0	468	38	8	
2	0	0	0	0	504	508	0	456	39	8	
3	0	0	0	0	503	507	0	456	39	8	
4	0	0	0	0	505	506	0	454	39	8	
5	0	0	0	0	507	508	0	455	39	8	
6	0	0	0	0	507	507	0	456	39	8	
7	0	0	0	0	508	507	0	454	39	8	
8	0	0	0	0	507	505	0	448	39	8	
9	0	0	0	0	509	507	0	442	38	8	
10	0	0	0	0	506	506	0	445	39	8	
11	0	0	0	0	502	508	0	446	39	8	
12	0	0	0	0	502	510	0	447	39	8	
13	0	0	0	0	497	508	0	448	39	8	
14	0	0	0	0	500	508	0	451	39	8	
15	0	0	0	0	500	509	0	454	39	8	
0	0	0	0	0	500	508	0	456	39	8	
1	0	0	0	0	504	508	0	454	38	8	
2	0	0	0	0	504	507	0	459	39	8	
3	0	0	0	0	505	507	0	460	39	8	
4	0	0	0	0	504	504	0	461	39	8	
5	0	0	0	0	503	503	0	463	39	8	
6	0	0	0	0	507	505	0	461	39	8	
7	0	0	0	0	506	504	0	459	39	8	
8	0	0	0	0	507	504	0	454	39	8	
9	0	0	0	0	506	505	0	452	38	8	
10	0	0	0	0	508	507	0	462	39	8	
11	0	0	0	0	504	505	0	452	39	8	
12	0	0	0	0	502	508	0	456	39	8	
13	0	0	0	0	500	507	0	457	39	8	
14	0	0	0	0	502	507	0	461	39	8	
15	0	0	0	0	499	508	0	465	39	8	
0	0	0	0	0	500	509	0	459	39	8	
1	0	0	0	0	504	510	0	460	38	8	
2	0	0	0	0	505	509	0	459	39	8	
3	0	0	0	0	504	507	0	460	39	8	
4	0	0	0	0	504	510	0	467	39	8	
5	0	0	0	0	504	508	0	477	39	8	
6	0	0	0	0	505	508	0	481	39	8	
7	0	0	0	0	508	508	0	478	39	8	
8	0	0	0	0	508	505	0	470	39	8	
9	0	0	0	0	508	504	0	464	38	8	
10	0	0	0	0	508	504	0	460	39	8	
11	0	0	0	0	509	504	0	462	39	8	
12	0	0	0	0	502	504	0	462	39	9	
13	0	0	0	0	502	504	0	462	39	8	
14	0	0	0	0	501	506	0	468	39	8	
15	0	0	0	0	502	504	0	484	39	8	
0	0	0	0	0	502	506	0	505	39	8	
1	0	0	0	0	502	507	0	524	38	8	
2	0	0	0	0	504	506	0	532	39	8	
3	0	0	0	0	504	506	0	527	39	9	
4	0	0	0	0	504	505	0	536	39	9	
5	0	0	0	0	502	504	0	539	39	8	
6	0	0	0	0	503	506	0	541	39	8	
7	0	0	0	0	503	508	0	551	39	8	
8	0	0	0	0	505	507	0	546	39	8	
9	0	0	0	0	504	508	0	552	38	8	
10	0	0	0	0	505	505	0	552	39	8	
11	0	0	0	0	507	507	0	548	39	8	
12	0	0	0	0	509	505	0	553	39	9	
13	0	0	0	0	502	506	0	547	39	8	
14	0	0	0	0	501	506	0	551	39	8	
15	0	0	0	0	500	505	0	548	39	8	
0	0	0	0	0	501	505	0	542	39	8	
1	0	0	0	0	499	504	0	546	38	8	
2	0	0	0	0	503	507	0	537	39	8	
3	0	0	0	0	505	507	0	544	39	8	
4	0	0	0	0	506	505	0	544	39	9	
5	0	0	0	0	505	505	0	542	39	8	
6	0	0	0	0	504	506	0	551	39	8	
7	0	0	0	0	505	507	0	546	39	8	
8	0	0	0	0	506	507	0	552	39	8	
9	0	0	0	0	504	505	0	545	38	8	
10	0	0	0	0	510	506	0	542	39	8	
11	0	0	0	0	508	506	0	547	39	8	
12	0	0	0	0	509	506	0	539	39	9	
13	0	0	0	0	506	504	0	543	39	8	
14	0	0	0	0	502	504	0	544	39	8	
15	0	0	0	0	498	505	0	543	39	8	
0	0	0	0	0	497	505	0	551	39	8	
1	0	0	0	0	500	505	0	544	38	8	
2	0	0	0	0	501	504	0	539	39	8	
3	0	0	0	0	503	504	0	534	39	8	
4	0	0	0	0	504	505	0	530	39	9	
5	0	0	0	0	505	506	0	520	39	8	
6	0	0	0	0	505	504	0	508	39	8	
7	0	0	0	0	502	504	0	494	39	8	
8	0	0	0	0	504	502	0	484	39	8	
9	0	0	0	0	505	504	0	478	38	8	
10	0	0	0	0	505	504	0	471	39	8	
11	0	0	0	0	507	505	0	469	39	8	
12	0	0	0	0	508	506	0	465	39	8	
13	0	0	0	0	507	506	0	465	39	8	
14	0	0	0	0	504	507	0	467	39	9	
15	0	0	0	0	501	506	0	464	39	8	
0	0	0	0	0	501	506	0	462	39	8	
1	0	0	0	0	502	505	0	457	38	8	
2	0	0	0	0	500	505	0	460	39	8	
3	0	0	0	0	501	506	0	472	39	8	
4	0	0	0	0	503	506	0	498	39	8	
5	0	0	0	0	504	504	0	508	39	9	
6	0	0	0	0	504	505	0	527	39	9	
7	0	0	0	0	504	505	0	534	39	8	
8	0	0	0	0	504	505	0	533	39	8	
9	0	0	0	0	505	504	0	542	38	8	
10	0	0	0	0	507	505	0	536	39	8	
11	0	0	0	0	507	506	0	543	38	8	
12	0	0	0	0	511	505	0	545	39	9	
13	0	0	0	0	511	504	0	541	39	9	
14	0	0	0	0	508	505	0	537	39	9	
15	0	0	0	0	503	506	0	547	39	8	
0	0	0	0	0	502	508	0	543	39	8	
1	0	0	0	0	500	506	0	537	38	8	
2	0	0	0	0	500	506	0	533	39	8	
3	0	0	0	0	502	505	0	527	39	8	
4	0	0	0	0	503	505	0	523	39	9	
5	0	0	0	0	504	505	0	511	39	8	
6	0	0	0	0	504	506	0	498	39	9	
7	0	0	0	0	504	507	0	491	39	9	
8	0	0	0	0	505	507	0	482	39	8	
9	0	0	0	0	507	507	0	480	38	8	
10	0	0	0	0	508	507	0	472	39	8	
11	0	0	0	0	507	507	0	470	39	8	
12	0	0	0	0	507	504	0	471	39	9	
13	0	0	0	0	507	504	0	476	39	8	
14	0	0	0	0	507	505	0	508	39	9	
15	0	0	0	0	503	506	0	515	39	9	
0	0	0	0	0	500	506	0	528	39	8	
1	0	0	0	0	501	506	0	536	38	8	
2	0	0	0	0	498	505	0	535	39	8	
3	0	0	0	0	500	506	0	546	39	8	
4	0	0	0	0	500	509	0	542	39	8	
5	0	0	0	0	502	508	0	543	39	8	
6	0	0	0	0	504	508	0	542	39	9	
7	0	0	0	0	503	509	0	531	39	9	
8	0	0	0	0	507	508	0	537	39	8	
9	0	0	0	0	507	508	0	534	38	8	
10	0	0	0	0	506	508	0	531	39	8	
11	0	0	0	0	510	507	0	525	39	8	
12	0	0	0	0	508	507	0	522	39	8	
13	0	0	0	0	509	508	0	516	39	9	
14	0	0	0	0	511	508	0	504	39	8	
15	0	0	0	0	506	507	0	493	39	9	
0	0	0	0	0	503	509	0	500	39	8	
1	0	0	0	0	501	508	0	475	38	8	
2	0	0	0	0	500	508	0	473	39	8	
3	0	0	0	0	501	508	0	465	39	8	
4	0	0	0	0	500	508	0	462	39	8	
5	0	0	0	0	502	506	0	473	39	8	
6	0	0	0	0	504	506	0	495	39	8	
7	0	0	0	0	501	506	0	503	39	9	
8	0	0	0	0	504	506	0	520	39	9	
9	0	0	0	0	504	505	0	528	38	8	
10	0	0	0	0	504	505	0	529	39	8	
11	0	0	0	0	504	507	0	534	39	8	
12	0	0	0	0	506	507	0	524	39	8	
13	0	0	0	0	508	505	0	524	39	8	
14	0	0	0	0	509	504	0	511	39	8	
15	0	0	0	0	507	504	0	499	39	9	
0	0	0	0	0	504	505	0	489	39	8	
1	0	0	0	0	502	504	0	480	38	8	
2	0	0	0	0	500	506	0	467	39	8	
3	0	0	0	0	500	505	0	462	39	8	
4	0	0	0	0	500	508	0	463	39	8	
5	0	0	0	0	502	508	0	460	39	8	
6	0	0	0	0	504	508	0	464	39	9	
7	0	0	0	0	505	508	0	458	39	8	
8	0	0	0	0	504	507	0	460	39	8	
9	0	0	0	0	504	508	0	456	38	9	
10	0	0	0	0	505	506	0	457	39	8	
11	0	0	0	0	505	506	0	473	39	8	
12	0	0	0	0	505	508	0	459	39	8	
13	0	0	0	0	505	509	0	463	39	8	
14	0	0	0	0	507	507	0	476	39	8	
15	0	0	0	0	507	508	0	498	39	8	
0	0	0	0	0	508	508	0	504	39	9	
1	0	0	0	0	507	507	0	521	38	9	
2	0	0	0	0	501	507	0	530	39	8	
3	0	0	0	0	501	506	0	536	39	8	
4	0	0	0	0	501	505	0	550	39	8	
5	0	0	0	0	500	506	0	547	39	8	
6	0	0	0	0	503	507	0	542	39	8	
7	0	0	0	0	505	507	0	545	39	8	
8	0	0	0	0	505	508	0	550	39	8	
9	0	0	0	0	505	506	0	545	38	8	
10	0	0	0	0	502	506	0	540	39	9	
11	0	0	0	0	505	506	0	537	39	8	
12	0	0	0	0	503	505	0	534	39	8	
13	0	0	0	0	505	505	0	532	39	8	
14	0	0	0	0	504	505	0	526	39	8	
15	0	0	0	0	509	505	0	514	39	8	
0	0	0	0	0	508	508	0	502	39	8	
1	0	0	0	0	508	510	0	492	38	8	
2	0	0	0	0	502	511	0	486	39	8	
3	0	0	0	0	499	510	0	478	39	8	
4	0	0	0	0	499	509	0	476	39	8	
5	0	0	0	0	500	509	0	471	39	8	
6	0	0	0	0	502	508	0	468	39	8	
7	0	0	0	0	503	508	0	478	39	8	
8	0	0	0	0	504	506	0	498	39	8	
9	0	0	0	0	504	507	0	507	38	9	
10	0	0	0	0	505	507	0	526	39	9	
11	0	0	0	0	504	505	0	535	39	8	
12	0	0	0	0	503	508	0	540	39	8	
13	0	0	0	0	504	507	0	551	39	8	
14	0	0	0	0	504	506	0	544	39	8	
15	0	0	0	0	507	505	0	544	39	8	
0	0	0	0	0	507	504	0	550	39	8	
1	0	0	0	0	508	504	0	533	38	8	
2	0	0	0	0	506	505	0	539	39	8	
3	0	0	0	0	504	506	0	533	39	8	
4	0	0	0	0	502	507	0	538	39	8	
5	0	0	0	0	499	508	0	536	39	8	
6	0	0	0	0	501	508	0	534	39	8	
7	0	0	0	0	501	506	0	543	39	8	
8	0	0	0	0	502	506	0	536	39	8	
9	0	0	0	0	504	504	0	559	38	8	
10	0	0	0	0	502	504	0	542	39	8	
11	0	0	0	0	504	504	0	538	39	8	
12	0	0	0	0	505	505	0	530	39	8	
13	0	0	0	0	506	504	0	524	39	8	
14	0	0	0	0	507	506	0	519	39	8	
15	0	0	0	0	507	504	0	504	39	8	
0	0	0	0	0	508	506	0	501	39	8	
1	0	0	0	0	508	506	0	508	38	8	
2	0	0	0	0	506	507	0	508	39	8	
3	0	0	0	0	504	507	0	496	39	8	
4	0	0	0	0	500	507	0	487	39	8	
5	0	0	0	0	501	507	0	478	39	8	
6	0	0	0	0	500	505	0	473	39	8	
7	0	0	0	0	500	505	0	492	39	8	
8	0	0	0	0	502	504	0	496	39	8	
9	0	0	0	0	504	504	0	505	38	8	
10	0	0	0	0	505	504	0	516	39	8	
11	0	0	0	0	504	504	0	517	39	8	
12	0	0	0	0	507	504	0	529	39	8	
13	0	0	0	0	504	505	0	528	39	8	
14	0	0	0	0	504	507	0	531	39	8	
15	0	0	0	0	508	507	0	537	39	8	
0	0	0	0	0	509	506	0	531	39	8	
1	0	0	0	0	510	507	0	525	38	9	
2	0	0	0	0	508	506	0	519	39	8	
3	0	0	0	0	508	506	0	515	39	8	
4	0	0	0	0	504	505	0	505	39	8	
5	0	0	0	0	500	507	0	494	39	8	
6	0	0	0	0	498	507	0	485	39	8	
7	0	0	0	0	499	509	0	472	39	8	
8	0	0	0	0	499	509	0	463	39	8	
9	0	0	0	0	502	509	0	468	38	8	
10	0	0	0	0	502	508	0	487	39	8	
11	0	0	0	0	503	507	0	497	39	9	
12	0	0	0	0	504	508	0	503	39	8	
13	0	0	0	0	503	509	0	515	39	8	
14	0	0	0	0	505	508	0	528	39	8	
15	0	0	0	0	507	507	0	525	39	8	
0	0	0	0	0	504	506	0	521	39	8	
1	0	0	0	0	508	506	0	517	38	8	
2	0	0	0	0	505	508	0	516	39	8	
3	0	0	0	0	508	508	0	515	39	8	
4	0	0	0	0	507	505	0	507	39	9	
5	0	0	0	0	503	504	0	496	39	8	
6	0	0	0	0	501	504	0	484	39	8	
7	0	0	0	0	501	504	0	474	39	8	
8	0	0	0	0	500	504	0	468	39	8	
9	0	0	0	0	499	504	0	460	38	8	
10	0	0	0	0	503	505	0	459	39	8	
11	0	0	0	0	505	505	0	455	39	8	
12	0	0	0	0	507	507	0	458	39	9	
13	0	0	0	0	505	508	0	456	39	8	
14	0	0	0	0	505	507	0	459	39	8	
15	0	0	0	0	507	507	0	462	39	8	
0	0	0	0	0	508	507	0	455	39	8	
1	0	0	0	0	508	507	0	456	38	8	
2	0	0	0	0	509	508	0	471	39	8	
3	0	0	0	0	508	506	0	496	39	8	
4	0	0	0	0	507	507	0	508	39	9	
5	0	0	0	0	505	508	0	527	39	9	
6	0	0	0	0	499	507	0	537	39	8	
7	0	0	0	0	500	507	0	540	39	8	
8	0	0	0	0	501	507	0	546	39	8	
9	0	0	0	0	500	507	0	538	38	8	
10	0	0	0	0	504	506	0	531	39	8	
11	0	0	0	0	502	506	0	529	39	8	
12	0	0	0	0	503	505	0	528	39	9	
13	0	0	0	0	503	505	0	522	39	8	
14	0	0	0	0	502	505	0	509	39	8	
15	0	0	0	0	502	505	0	497	39	8	
0	0	0	0	0	504	504	0	489	39	8	
1	0	0	0	0	505	505	0	483	38	8	
2	0	0	0	0	505	505	0	477	39	8	
3	0	0	0	0	508	505	0	475	39	8	
4	0	0	0	0	508	504	0	473	39	9	
5	0	0	0	0	506	504	0	474	39	8	
6	0	0	0	0	504	504	0	474	39	9	
7	0	0	0	0	503	506	0	472	39	8	
8	0	0	0	0	502	507	0	471	39	8	
9	0	0	0	0	500	507	0	465	38	8	
10	0	0	0	0	500	507	0	465	39	8	
11	0	0	0	0	501	506	0	480	39	8	
12	0	0	0	0	503	506	0	507	39	8	
13	0	0	0	0	505	506	0	518	39	9	
14	0	0	0	0	505	504	0	535	39	9	
15	0	0	0	0	505	505	0	542	39	8	
0	0	0	0	0	504	505	0	542	39	8	
1	0	0	0	0	504	506	0	553	38	8	
2	0	0	0	0	505	505	0	550	39	8	
3	0	0	0	0	505	504	0	555	39	8	
4	0	0	0	0	508	504	0	554	39	8	
5	0	0	0	0	510	504	0	548	39	9	
6	0	0	0	0	508	505	0	543	39	8	
7	0	0	0	0	503	508	0	537	39	9	
8	0	0	0	0	499	508	0	531	39	8	
9	0	0	0	0	499	507	0	519	38	8	
10	0	0	0	0	500	504	0	506	39	8	
11	0	0	0	0	498	506	0	497	39	8	
12	0	0	0	0	502	507	0	491	39	9	
13	0	0	0	0	504	508	0	484	39	8	
14	0	0	0	0	505	507	0	476	39	9	
15	0	0	0	0	504	508	0	472	39	9	
0	0	0	0	0	507	507	0	465	39	8	
1	0	0	0	0	504	507	0	460	38	8	
2	0	0	0	0	505	505	0	458	39	8	
3	0	0	0	0	507	507	0	462	39	8	
4	0	0	0	0	508	506	0	478	39	9	
5	0	0	0	0	508	504	0	503	39	8	
6	0	0	0	0	507	506	0	513	39	9	
7	0	0	0	0	505	505	0	531	39	9	
8	0	0	0	0	502	508	0	536	39	8	
9	0	0	0	0	499	508	0	538	38	8	
10	0	0	0	0	499	509	0	550	39	8	
11	0	0	0	0	499	507	0	544	39	8	
12	0	0	0	0	503	507	0	527	39	8	
13	0	0	0	0	503	506	0	507	39	8	
14	0	0	0	0	504	506	0	493	39	9	
15	0	0	0	0	507	507	0	489	39	9	
0	0	0	0	0	505	508	0	508	39	8	
1	0	0	0	0	505	506	0	516	38	8	
2	0	0	0	0	504	507	0	522	39	8	
3	0	0	0	0	508	507	0	523	39	8	
4	0	0	0	0	506	507	0	523	39	8	
5	0	0	0	0	507	506	0	523	39	9	
6	0	0	0	0	507	507	0	515	39	8	
7	0	0	0	0	506	508	0	503	39	9	
8	0	0	0	0	504	508	0	493	39	9	
9	0	0	0	0	499	509	0	488	38	8	
10	0	0	0	0	500	509	0	486	39	8	
11	0	0	0	0	500	509	0	480	39	8	
12	0	0	0	0	500	508	0	476	39	8	
13	0	0	0	0	503	508	0	485	39	9	
14	0	0	0	0	504	506	0	507	39	8	
15	0	0	0	0	505	507	0	510	39	9	
0	0	0	0	0	506	505	0	542	39	9	
1	0	0	0	0	505	504	0	532	38	8	
2	0	0	0	0	504	505	0	534	39	8	
3	0	0	0	0	506	505	0	533	39	8	
4	0	0	0	0	508	507	0	529	39	8	
5	0	0	0	0	508	509	0	526	39	8	
6	0	0	0	0	508	508	0	512	39	8	
7	0	0	0	0	510	507	0	502	39	9	
8	0	0	0	0	506	505	0	487	39	9	
9	0	0	0	0	501	506	0	482	38	8	
10	0	0	0	0	500	506	0	472	39	8	
11	0	0	0	0	499	507	0	468	39	8	
12	0	0	0	0	500	508	0	467	39	8	
13	0	0	0	0	499	508	0	465	39	8	
14	0	0	0	0	500	508	0	468	39	9	
15	0	0	0	0	505	507	0	467	39	8	
0	0	0	0	0	505	508	0	467	39	9	
1	0	0	0	0	507	507	0	464	38	9	
2	0	0	0	0	505	505	0	463	39	8	
3	0	0	0	0	500	505	0	467	39	8	
4	0	0	0	0	507	507	0	467	39	8	
5	0	0	0	0	506	508	0	468	39	8	
6	0	0	0	0	508	508	0	471	39	9	
7	0	0	0	0	507	508	0	474	39	8	
8	0	0	0	0	510	510	0	472	39	9	
9	0	0	0	0	509	510	0	469	38	9	
10	0	0	0	0	504	510	0	471	39	8	
11	0	0	0	0	501	508	0	474	39	8	
12	0	0	0	0	501	509	0	475	39	8	
13	0	0	0	0	501	507	0	478	39	8	
14	0	0	0	0	501	508	0	480	39	8	
15	0	0	0	0	504	506	0	480	39	8	
0	0	0	0	0	506	507	0	479	39	8	
1	0	0	0	0	504	507	0	476	38	8	
2	0	0	0	0	503	508	0	480	39	8	
3	0	0	0	0	504	507	0	483	39	8	
4	0	0	0	0	504	506	0	485	39	8	
5	0	0	0	0	506	504	0	491	39	8	
6	0	0	0	0	507	503	0	492	39	8	
7	0	0	0	0	506	505	0	495	39	9	
8	0	0	0	0	507	507	0	490	39	8	
9	0	0	0	0	508	507	0	489	38	9	
10	0	0	0	0	500	505	0	494	39	8	
11	0	0	0	0	501	507	0	489	39	8	
12	0	0	0	0	500	508	0	492	39	8	
13	0	0	0	0	498	508	0	513	39	8	
14	0	0	0	0	498	507	0	527	38	8	
15	0	0	0	0	500	507	0	523	39	9	
0	0	0	0	0	503	505	0	511	38	8	
1	0	0	0	0	503	505	0	499	38	8	
2	0	0	0	0	503	505	0	492	39	8	
3	0	0	0	0	504	505	0	506	39	8	
4	0	0	0	0	504	505	0	525	39	8	
5	0	0	0	0	506	505	0	527	39	8	
6	0	0	0	0	504	506	0	523	39	8	
7	0	0	0	0	505	506	0	538	39	8	
8	0	0	0	0	507	507	0	544	39	8	
9	0	0	0	0	510	506	0	535	38	8	
10	0	0	0	0	505	505	0	521	39	9	
11	0	0	0	0	503	507	0	513	39	8	
12	0	0	0	0	500	504	0	526	39	8	
13	0	0	0	0	499	503	0	535	39	8	
14	0	0	0	0	500	504	0	529	39	8	
15	0	0	0	0	500	504	0	512	39	8	
0	0	0	0	0	502	504	0	496	39	8	
1	0	0	0	0	509	505	0	485	38	8	
2	0	0	0	0	506	505	0	497	39	9	
3	0	0	0	0	505	505	0	517	39	9	
4	0	0	0	0	504	506	0	525	39	8	
5	0	0	0	0	504	507	0	546	39	8	
6	0	0	0	0	506	507	0	547	39	8	
7	0	0	0	0	505	507	0	548	39	8	
8	0	0	0	0	505	508	0	512	39	8	
9	0	0	0	0	505	507	0	497	38	8	
10	0	0	0	0	509	508	0	487	39	8	
11	0	0	0	0	507	508	0	480	39	9	
12	0	0	0	0	500	507	0	479	39	8	
13	0	0	0	0	498	507	0	479	39	8	
14	0	0	0	0	499	508	0	479	39	8	
15	0	0	0	0	500	508	0	482	39	8	
0	0	0	0	0	503	505	0	479	39	8	
1	0	0	0	0	503	504	0	476	38	8	
2	0	0	0	0	506	503	0	478	39	9	
3	0	0	0	0	504	503	0	478	39	9	
4	0	0	0	0	507	504	0	480	39	9	
5	0	0	0	0	507	505	0	481	39	8	
6	0	0	0	0	505	504	0	481	39	8	
7	0	0	0	0	507	503	0	480	39	8	
8	0	0	0	0	507	501	0	473	39	8	
9	0	0	0	0	507	503	0	472	38	9	
10	0	0	0	0	508	504	0	468	39	8	
11	0	0	0	0	509	507	0	472	39	9	
12	0	0	0	0	503	505	0	474	39	9	
13	0	0	0	0	501	504	0	474	39	8	
14	0	0	0	0	499	504	0	477	39	8	
15	0	0	0	0	499	504	0	474	38	8	
0	0	0	0	0	501	504	0	473	38	8	
1	0	0	0	0	502	506	0	470	38	9	
2	0	0	0	0	504	504	0	469	38	8	
3	0	0	0	0	503	504	0	474	38	9	
4	0	0	0	0	506	505	0	476	38	9	
5	0	0	0	0	504	507	0	477	39	8	
6	0	0	0	0	504	506	0	480	39	8	
7	0	0	0	0	505	508	0	478	39	8	
8	0	0	0	0	505	510	0	476	39	8	
9	0	0	0	0	508	510	0	472	38	8	
10	0	0	0	0	508	509	0	469	39	8	
11	0	0	0	0	512	508	0	473	39	9	
12	0	0	0	0	509	509	0	477	39	9	
13	0	0	0	0	505	508	0	482	39	8	
14	0	0	0	0	501	508	0	482	39	8	
15	0	0	0	0	500	505	0	482	39	8	
0	0	0	0	0	501	505	0	480	39	8	
1	0	0	0	0	501	505	0	475	38	8	
2	0	0	0	0	501	507	0	479	39	9	
3	0	0	0	0	501	506	0	481	39	9	
4	0	0	0	0	503	505	0	484	39	9	
5	0	0	0	0	504	507	0	502	39	9	
6	0	0	0	0	503	507	0	485	39	8	
7	0	0	0	0	503	508	0	482	39	8	
8	0	0	0	0	505	506	0	479	39	8	
9	0	0	0	0	506	504	0	495	38	8	
10	0	0	0	0	505	503	0	521	39	9	
11	0	0	0	0	508	504	0	532	39	9	
12	0	0	0	0	506	503	0	554	39	9	
13	0	0	0	0	507	504	0	561	39	9	
14	0	0	0	0	502	503	0	568	39	9	
15	0	0	0	0	502	503	0	576	39	8	
0	0	0	0	0	500	504	0	571	39	8	
1	0	0	0	0	500	503	0	577	38	8	
2	0	0	0	0	500	504	0	568	39	8	
3	0	0	0	0	502	504	0	573	39	9	
4	0	0	0	0	503	506	0	567	39	9	
5	0	0	0	0	505	506	0	559	39	9	
6	0	0	0	0	504	505	0	567	39	9	
7	0	0	0	0	504	506	0	561	39	8	
8	0	0	0	0	505	506	0	562	39	8	
9	0	0	0	0	505	507	0	564	38	8	
10	0	0	0	0	509	505	0	557	39	8	
11	0	0	0	0	508	505	0	564	39	9	
12	0	0	0	0	510	506	0	559	39	9	
13	0	0	0	0	508	504	0	560	39	9	
14	0	0	0	0	504	505	0	564	39	9	
15	0	0	0	0	501	503	0	558	39	9	
0	0	0	0	0	499	506	0	563	39	8	
1	0	0	0	0	500	506	0	556	38	8	
2	0	0	0	0	500	507	0	555	39	8	
3	0	0	0	0	504	508	0	558	39	9	
4	0	0	0	0	503	508	0	548	39	9	
5	0	0	0	0	504	508	0	557	39	9	
6	0	0	0	0	505	507	0	551	39	9	
7	0	0	0	0	504	505	0	551	39	9	
8	0	0	0	0	502	506	0	553	39	9	
9	0	0	0	0	505	507	0	544	39	8	
10	0	0	0	0	506	507	0	553	39	8	
11	0	0	0	0	510	508	0	550	39	9	
12	0	0	0	0	509	506	0	566	39	9	
13	0	0	0	0	508	508	0	557	39	9	
14	0	0	0	0	504	508	0	551	39	9	
15	0	0	0	0	500	507	0	559	39	9	
0	0	0	0	0	498	507	0	556	39	9	
1	0	0	0	0	500	507	0	558	39	9	
2	0	0	0	0	500	507	0	560	39	8	
3	0	0	0	0	500	508	0	554	39	9	
4	0	0	0	0	503	508	0	559	39	9	
5	0	0	0	0	504	509	0	556	39	9	
6	0	0	0	0	504	509	0	557	39	9	
7	0	0	0	0	503	508	0	558	39	9	
8	0	0	0	0	503	507	0	552	39	9	
9	0	0	0	0	505	508	0	561	39	8	
10	0	0	0	0	505	508	0	561	39	8	
11	0	0	0	0	507	507	0	565	39	8	
12	0	0	0	0	507	508	0	571	39	9	
13	0	0	0	0	510	506	0	560	39	9	
14	0	0	0	0	510	504	0	571	39	9	
15	0	0	0	0	508	505	0	567	39	9	
0	0	0	0	0	504	505	0	567	39	9	
1	0	0	0	0	501	506	0	567	39	9	
2	0	0	0	0	502	506	0	559	39	8	
3	0	0	0	0	502	507	0	566	39	8	
4	0	0	0	0	503	507	0	558	39	9	
5	0	0	0	0	502	504	0	540	39	9	
6	0	0	0	0	505	504	0	521	39	9	
7	0	0	0	0	506	504	0	506	39	9	
8	0	0	0	0	504	507	0	499	39	9	
9	0	0	0	0	505	507	0	515	38	9	
10	0	0	0	0	506	507	0	526	39	8	
11	0	0	0	0	508	505	0	533	39	8	
12	0	0	0	0	510	504	0	549	39	9	
13	0	0	0	0	510	505	0	549	39	9	
14	0	0	0	0	508	506	0	555	39	9	
15	0	0	0	0	510	506	0	551	39	9	
0	0	0	0	0	505	508	0	543	39	9	
1	0	0	0	0	500	507	0	546	38	9	
2	0	0	0	0	497	508	0	539	39	9	
3	0	0	0	0	499	507	0	543	39	8	
4	0	0	0	0	498	507	0	541	39	9	
5	0	0	0	0	499	507	0	534	39	9	
6	0	0	0	0	502	508	0	532	39	9	
7	0	0	0	0	503	508	0	542	39	9	
8	0	0	0	0	503	507	0	538	39	9	
9	0	0	0	0	503	507	0	532	38	9	
10	0	0	0	0	503	508	0	528	39	9	
11	0	0	0	0	505	508	0	521	39	8	
12	0	0	0	0	505	507	0	515	39	8	
13	0	0	0	0	508	508	0	504	39	9	
14	0	0	0	0	508	507	0	492	39	9	
15	0	0	0	0	508	509	0	484	39	9	
0	0	0	0	0	508	508	0	472	39	9	
1	0	0	0	0	504	507	0	464	38	9	
2	0	0	0	0	502	509	0	459	39	9	
3	0	0	0	0	501	508	0	458	39	8	
4	0	0	0	0	501	508	0	461	39	8	
5	0	0	0	0	500	508	0	460	39	8	
6	0	0	0	0	503	507	0	463	39	9	
7	0	0	0	0	503	505	0	460	39	9	
8	0	0	0	0	502	505	0	461	39	9	
9	0	0	0	0	505	506	0	457	38	9	
10	0	0	0	0	502	505	0	460	39	9	
11	0	0	0	0	504	506	0	462	39	8	
12	0	0	0	0	508	506	0	457	39	8	
13	0	0	0	0	506	507	0	461	39	8	
14	0	0	0	0	508	507	0	475	39	9	
15	0	0	0	0	509	506	0	497	39	9	
0	0	0	0	0	507	507	0	513	39	9	
1	0	0	0	0	504	507	0	523	38	9	
2	0	0	0	0	502	507	0	530	39	9	
3	0	0	0	0	501	508	0	533	39	8	
4	0	0	0	0	502	509	0	543	39	8	
5	0	0	0	0	503	509	0	538	39	8	
6	0	0	0	0	502	509	0	545	39	8	
7	0	0	0	0	502	508	0	544	39	9	
8	0	0	0	0	504	507	0	541	39	9	
9	0	0	0	0	503	506	0	546	38	9	
10	0	0	0	0	504	507	0	541	39	9	
11	0	0	0	0	504	510	0	548	39	8	
12	0	0	0	0	504	509	0	548	39	8	
13	0	0	0	0	506	511	0	543	39	8	
14	0	0	0	0	506	510	0	538	39	8	
15	0	0	0	0	508	508	0	547	39	9	
0	0	0	0	0	508	509	0	544	39	9	
1	0	0	0	0	507	509	0	540	38	9	
2	0	0	0	0	503	508	0	535	39	9	
3	0	0	0	0	502	509	0	530	39	8	
4	0	0	0	0	500	507	0	523	39	8	
5	0	0	0	0	500	507	0	511	39	8	
6	0	0	0	0	501	508	0	498	38	8	
7	0	0	0	0	502	510	0	495	38	8	
8	0	0	0	0	503	510	0	494	38	8	
9	0	0	0	0	506	510	0	486	38	9	
10	0	0	0	0	507	511	0	476	38	9	
11	0	0	0	0	504	508	0	469	38	8	
12	0	0	0	0	505	508	0	465	38	8	
13	0	0	0	0	508	506	0	463	39	8	
14	0	0	0	0	506	506	0	463	38	8	
15	0	0	0	0	509	506	0	459	38	8	
0	0	0	0	0	509	507	0	460	38	8	
1	0	0	0	0	509	507	0	456	38	9	
2	0	0	0	0	505	507	0	458	38	9	
3	0	0	0	0	501	509	0	458	38	8	
4	0	0	0	0	500	510	0	457	38	8	
5	0	0	0	0	500	511	0	459	39	8	
6	0	0	0	0	502	509	0	461	38	8	
7	0	0	0	0	500	508	0	463	38	8	
8	0	0	0	0	502	508	0	462	38	8	
9	0	0	0	0	502	509	0	457	38	8	
10	0	0	0	0	504	508	0	460	38	9	
11	0	0	0	0	504	507	0	462	39	9	
12	0	0	0	0	503	507	0	462	38	8	
13	0	0	0	0	505	507	0	467	39	8	
14	0	0	0	0	505	508	0	468	38	8	
15	0	0	0	0	507	508	0	467	39	8	
0	0	0	0	0	507	508	0	476	39	8	
1	0	0	0	0	506	508	0	497	38	8	
2	0	0	0	0	508	506	0	510	39	9	
3	0	0	0	0	507	506	0	528	39	9	
4	0	0	0	0	501	505	0	535	39	8	
5	0	0	0	0	501	504	0	539	39	8	
6	0	0	0	0	501	504	0	551	39	8	
7	0	0	0	0	501	506	0	547	39	8	
8	0	0	0	0	501	505	0	553	39	8	
9	0	0	0	0	502	504	0	552	38	8	
10	0	0	0	0	506	504	0	548	39	8	
11	0	0	0	0	505	505	0	553	39	9	
12	0	0	0	0	504	505	0	547	39	9	
13	0	0	0	0	505	506	0	538	39	8	
14	0	0	0	0	506	505	0	535	39	8	
15	0	0	0	0	505	505	0	530	39	8	
0	0	0	0	0	508	504	0	521	39	8	
1	0	0	0	0	507	506	0	508	38	8	
2	0	0	0	0	508	505	0	495	39	8	
3	0	0	0	0	505	508	0	487	39	8	
4	0	0	0	0	501	509	0	480	39	9	
5	0	0	0	0	499	509	0	472	39	8	
6	0	0	0	0	501	508	0	471	39	8	
7	0	0	0	0	503	508	0	467	39	8	
8	0	0	0	0	499	508	0	464	39	8	
9	0	0	0	0	504	508	0	473	38	8	
10	0	0	0	0	504	507	0	497	39	8	
11	0	0	0	0	503	506	0	509	39	9	
12	0	0	0	0	507	507	0	529	39	9	
13	0	0	0	0	505	507	0	540	39	8	
14	0	0	0	0	505	506	0	545	39	8	
15	0	0	0	0	505	505	0	560	39	8	
0	0	0	0	0	508	504	0	556	39	8	
1	0	0	0	0	506	503	0	562	38	8	
2	0	0	0	0	508	502	0	564	39	8	
3	0	0	0	0	507	504	0	558	39	8	
4	0	0	0	0	507	504	0	564	39	8	
5	0	0	0	0	503	505	0	545	39	9	
6	0	0	0	0	502	504	0	541	39	8	
7	0	0	0	0	501	505	0	527	39	8	
8	0	0	0	0	499	506	0	512	39	8	
9	0	0	0	0	500	509	0	498	38	8	
10	0	0	0	0	502	509	0	491	39	8	
11	0	0	0	0	507	508	0	485	39	8	
12	0	0	0	0	503	507	0	482	39	9	
13	0	0	0	0	503	507	0	480	39	8	
14	0	0	0	0	504	504	0	480	39	8	
15	0	0	0	0	504	504	0	482	39	8	
0	0	0	0	0	508	504	0	475	39	8	
1	0	0	0	0	507	504	0	475	38	8	
2	0	0	0	0	508	505	0	488	39	8	
3	0	0	0	0	510	506	0	514	39	8	
4	0	0	0	0	510	506	0	523	39	9	
5	0	0	0	0	506	505	0	542	39	8	
6	0	0	0	0	502	505	0	546	39	8	
7	0	0	0	0	498	506	0	548	39	8	
8	0	0	0	0	498	505	0	559	39	8	
9	0	0	0	0	499	505	0	556	38	8	
10	0	0	0	0	498	504	0	564	39	8	
11	0	0	0	0	502	505	0	562	39	8	
12	0	0	0	0	504	504	0	559	39	9	
13	0	0	0	0	504	504	0	554	39	8	
14	0	0	0	0	505	504	0	551	39	9	
15	0	0	0	0	504	505	0	548	39	8	
0	0	0	0	0	504	504	0	535	39	8	
1	0	0	0	0	506	504	0	530	38	8	
2	0	0	0	0	506	504	0	514	39	8	
3	0	0	0	0	506	506	0	505	39	8	
4	0	0	0	0	508	507	0	499	39	8	
5	0	0	0	0	507	507	0	496	39	9	
6	0	0	0	0	502	507	0	494	39	9	
7	0	0	0	0	500	507	0	492	39	8	
8	0	0	0	0	501	508	0	493	39	8	
9	0	0	0	0	499	507	0	488	38	8	
10	0	0	0	0	502	506	0	487	39	8	
11	0	0	0	0	503	506	0	501	39	8	
12	0	0	0	0	502	505	0	526	39	8	
13	0	0	0	0	504	505	0	535	39	9	
14	0	0	0	0	504	505	0	553	39	9	
15	0	0	0	0	505	505	0	559	39	8	
0	0	0	0	0	507	505	0	562	39	8	
1	0	0	0	0	505	505	0	570	38	8	
2	0	0	0	0	507	506	0	564	39	8	
3	0	0	0	0	507	507	0	560	39	8	
4	0	0	0	0	505	507	0	558	39	8	
5	0	0	0	0	510	506	0	556	39	8	
6	0	0	0	0	507	504	0	553	39	9	
7	0	0	0	0	505	504	0	549	39	8	
8	0	0	0	0	500	505	0	538	39	8	
9	0	0	0	0	499	505	0	523	38	8	
10	0	0	0	0	500	506	0	514	39	8	
11	0	0	0	0	500	506	0	507	39	8	
12	0	0	0	0	504	506	0	504	39	9	
13	0	0	0	0	506	504	0	502	39	8	
14	0	0	0	0	505	505	0	500	39	9	
15	0	0	0	0	503	506	0	499	39	9	
0	0	0	0	0	502	507	0	499	39	8	
1	0	0	0	0	505	506	0	496	38	8	
2	0	0	0	0	506	504	0	493	39	8	
3	0	0	0	0	502	504	0	493	39	8	
4	0	0	0	0	507	506	0	504	39	9	
5	0	0	0	0	507	506	0	529	39	8	
6	0	0	0	0	511	506	0	539	39	9	
7	0	0	0	0	507	506	0	553	39	9	
8	0	0	0	0	500	508	0	557	39	8	
9	0	0	0	0	503	507	0	557	38	8	
10	0	0	0	0	502	506	0	581	39	8	
11	0	0	0	0	501	506	0	564	39	8	
12	0	0	0	0	501	506	0	572	39	8	
13	0	0	0	0	502	504	0	572	39	8	
14	0	0	0	0	504	503	0	558	39	9	
15	0	0	0	0	504	504	0	537	39	9	
0	0	0	0	0	506	505	0	518	39	8	
1	0	0	0	0	505	506	0	502	38	8	
2	0	0	0	0	503	506	0	493	39	8	
3	0	0	0	0	504	506	0	488	39	8	
4	0	0	0	0	505	506	0	487	39	8	
5	0	0	0	0	508	507	0	486	39	9	
6	0	0	0	0	508	506	0	503	39	8	
7	0	0	0	0	508	505	0	484	39	9	
8	0	0	0	0	505	508	0	481	39	9	
9	0	0	0	0	502	506	0	475	38	8	
10	0	0	0	0	502	505	0	478	39	8	
11	0	0	0	0	500	504	0	479	39	8	
12	0	0	0	0	499	507	0	480	39	8	
13	0	0	0	0	503	507	0	485	39	9	
14	0	0	0	0	501	507	0	486	39	8	
15	0	0	0	0	504	506	0	487	39	9	
0	0	0	0	0	504	508	0	481	39	9	
1	0	0	0	0	503	511	0	479	38	8	
2	0	0	0	0	505	508	0	480	39	8	
3	0	0	0	0	503	508	0	481	39	8	
4	0	0	0	0	506	508	0	484	39	8	
5	0	0	0	0	509	506	0	486	39	8	
6	0	0	0	0	507	507	0	486	39	9	
7	0	0	0	0	509	507	0	494	39	9	
8	0	0	0	0	506	508	0	479	39	9	
9	0	0	0	0	503	509	0	476	38	9	
10	0	0	0	0	502	510	0	475	39	8	
11	0	0	0	0	500	510	0	475	39	8	
12	0	0	0	0	501	509	0	478	39	8	
13	0	0	0	0	500	507	0	480	39	8	
14	0	0	0	0	501	507	0	484	39	9	
15	0	0	0	0	503	507	0	482	39	8	
0	0	0	0	0	504	507	0	481	39	9	
1	0	0	0	0	505	506	0	481	38	9	
2	0	0	0	0	503	506	0	479	39	8	
3	0	0	0	0	504	508	0	492	39	8	
4	0	0	0	0	505	510	0	484	39	8	
5	0	0	0	0	507	510	0	486	39	8	
6	0	0	0	0	507	508	0	487	39	9	
7	0	0	0	0	508	508	0	486	39	8	
8	0	0	0	0	507	508	0	483	39	9	
9	0	0	0	0	507	508	0	478	38	9	
10	0	0	0	0	503	508	0	478	39	9	
11	0	0	0	0	498	506	0	479	39	8	
12	0	0	0	0	500	505	0	486	39	8	
13	0	0	0	0	500	504	0	515	39	8	
14	0	0	0	0	502	504	0	529	39	8	
15	0	0	0	0	504	504	0	546	39	9	
0	0	0	0	0	504	507	0	558	39	9	
1	0	0	0	0	504	506	0	556	38	9	
2	0	0	0	0	505	505	0	566	39	8	
3	0	0	0	0	504	507	0	563	39	8	
4	0	0	0	0	505	506	0	567	39	8	
5	0	0	0	0	507	507	0	569	39	8	
6	0	0	0	0	506	508	0	580	39	8	
7	0	0	0	0	507	508	0	569	39	9	
8	0	0	0	0	510	508	0	565	39	8	
9	0	0	0	0	510	509	0	563	38	9	
10	0	0	0	0	504	508	0	563	39	9	
11	0	0	0	0	500	507	0	556	39	8	
12	0	0	0	0	502	507	0	563	39	8	
13	0	0	0	0	499	507	0	559	39	8	
14	0	0	0	0	501	508	0	560	39	8	
15	0	0	0	0	502	508	0	562	39	9	
0	0	0	0	0	504	508	0	555	39	8	
1	0	0	0	0	504	505	0	563	38	9	
2	0	0	0	0	505	508	0	561	39	9	
3	0	0	0	0	504	508	0	562	39	8	
4	0	0	0	0	504	506	0	570	39	8	
5	0	0	0	0	503	505	0	562	39	8	
6	0	0	0	0	509	505	0	569	39	8	
7	0	0	0	0	510	504	0	561	39	8	
8	0	0	0	0	508	504	0	561	39	8	
9	0	0	0	0	509	505	0	562	38	9	
10	0	0	0	0	508	506	0	553	39	9	
11	0	0	0	0	504	506	0	561	39	8	
12	0	0	0	0	502	506	0	555	39	8	
13	0	0	0	0	499	506	0	555	39	8	
14	0	0	0	0	498	505	0	559	39	8	
15	0	0	0	0	499	505	0	552	39	8	
0	0	0	0	0	502	507	0	561	39	8	
1	0	0	0	0	505	506	0	560	38	8	
2	0	0	0	0	504	506	0	554	39	8	
3	0	0	0	0	503	506	0	547	39	8	
4	0	0	0	0	504	507	0	541	39	8	
5	0	0	0	0	505	508	0	535	39	8	
6	0	0	0	0	508	509	0	520	39	8	
7	0	0	0	0	506	509	0	508	39	8	
8	0	0	0	0	507	510	0	505	39	8	
9	0	0	0	0	509	509	0	504	38	8	
10	0	0	0	0	507	509	0	499	39	9	
11	0	0	0	0	506	508	0	492	39	9	
12	0	0	0	0	503	507	0	487	39	9	
13	0	0	0	0	501	507	0	483	39	8	
14	0	0	0	0	499	506	0	480	39	8	
15	0	0	0	0	499	507	0	479	39	8	
0	0	0	0	0	502	510	0	475	39	8	
1	0	0	0	0	502	508	0	473	38	8	
2	0	0	0	0	503	509	0	474	39	8	
3	0	0	0	0	503	508	0	472	39	9	
4	0	0	0	0	504	508	0	474	39	9	
5	0	0	0	0	505	505	0	474	39	8	
6	0	0	0	0	504	504	0	473	39	8	
7	0	0	0	0	506	505	0	486	39	8	
8	0	0	0	0	505	506	0	466	39	8	
9	0	0	0	0	508	506	0	463	38	8	
10	0	0	0	0	508	507	0	462	39	8	
11	0	0	0	0	506	505	0	465	39	8	
12	0	0	0	0	504	507	0	467	39	9	
13	0	0	0	0	501	506	0	468	39	8	
14	0	0	0	0	500	508	0	474	39	8	
15	0	0	0	0	499	507	0	471	39	8	
0	0	0	0	0	498	508	0	468	39	8	
1	0	0	0	0	502	508	0	478	38	8	
2	0	0	0	0	504	509	0	501	39	8	
3	0	0	0	0	505	509	0	508	39	8	
4	0	0	0	0	508	507	0	504	39	9	
5	0	0	0	0	503	508	0	499	39	8	
6	0	0	0	0	505	509	0	492	39	8	
7	0	0	0	0	505	508	0	487	39	8	
8	0	0	0	0	507	506	0	503	39	8	
9	0	0	0	0	507	506	0	506	38	8	
10	0	0	0	0	508	505	0	520	39	8	
11	0	0	0	0	507	506	0	531	39	8	
12	0	0	0	0	508	505	0	532	39	9	
13	0	0	0	0	504	504	0	547	39	8	
14	0	0	0	0	501	505	0	547	39	8	
15	0	0	0	0	502	505	0	549	39	8	
0	0	0	0	0	500	504	0	551	39	8	
1	0	0	0	0	498	504	0	543	38	8	
2	0	0	0	0	502	504	0	551	39	8	
3	0	0	0	0	503	503	0	551	39	8	
4	0	0	0	0	506	503	0	555	39	8	
5	0	0	0	0	503	504	0	559	39	8	
6	0	0	0	0	504	504	0	553	39	8	
7	0	0	0	0	504	504	0	560	39	8	
8	0	0	0	0	505	505	0	556	39	8	
9	0	0	0	0	507	504	0	556	38	8	
10	0	0	0	0	504	506	0	562	39	8	
11	0	0	0	0	509	508	0	555	39	8	
12	0	0	0	0	509	506	0	562	39	8	
13	0	0	0	0	505	508	0	557	39	8	
14	0	0	0	0	504	507	0	556	39	8	
15	0	0	0	0	498	505	0	558	39	8	
0	0	0	0	0	502	506	0	547	39	8	
1	0	0	0	0	502	507	0	552	38	8	
2	0	0	0	0	499	506	0	545	39	8	
3	0	0	0	0	502	504	0	536	39	8	
4	0	0	0	0	503	504	0	532	39	8	
5	0	0	0	0	503	505	0	525	39	8	
6	0	0	0	0	503	505	0	520	39	8	
7	0	0	0	0	503	506	0	507	39	8	
8	0	0	0	0	504	507	0	493	39	8	
9	0	0	0	0	507	507	0	485	38	8	
10	0	0	0	0	507	507	0	474	39	8	
11	0	0	0	0	506	507	0	473	39	8	
12	0	0	0	0	511	508	0	467	39	8	
13	0	0	0	0	508	510	0	469	39	8	
14	0	0	0	0	507	509	0	467	39	8	
15	0	0	0	0	501	509	0	463	39	8	
0	0	0	0	0	500	508	0	463	39	8	
1	0	0	0	0	499	509	0	456	38	8	
2	0	0	0	0	499	510	0	461	39	8	
3	0	0	0	0	502	509	0	472	39	8	
4	0	0	0	0	502	508	0	496	39	8	
5	0	0	0	0	503	509	0	505	39	8	
6	0	0	0	0	505	509	0	521	39	8	
7	0	0	0	0	507	508	0	526	39	8	
8	0	0	0	0	503	508	0	527	39	8	
9	0	0	0	0	507	507	0	539	38	8	
10	0	0	0	0	507	508	0	537	39	8	
11	0	0	0	0	507	507	0	548	39	8	
12	0	0	0	0	509	507	0	549	39	8	
13	0	0	0	0	508	506	0	545	39	8	
14	0	0	0	0	508	507	0	540	39	8	
15	0	0	0	0	504	506	0	551	39	8	
0	0	0	0	0	500	506	0	547	39	8	
1	0	0	0	0	501	507	0	543	38	8	
2	0	0	0	0	499	508	0	537	39	8	
3	0	0	0	0	499	508	0	532	39	8	
4	0	0	0	0	504	507	0	527	39	8	
5	0	0	0	0	506	506	0	515	39	8	
6	0	0	0	0	504	508	0	502	39	8	
7	0	0	0	0	506	506	0	493	39	8	
8	0	0	0	0	505	508	0	484	39	8	
9	0	0	0	0	504	509	0	478	38	8	
10	0	0	0	0	507	508	0	473	39	8	
11	0	0	0	0	504	509	0	470	39	8	
12	0	0	0	0	505	508	0	497	39	8	
13	0	0	0	0	507	507	0	508	39	8	
14	0	0	0	0	507	506	0	521	39	8	
15	0	0	0	0	503	507	0	538	39	8	
0	0	0	0	0	501	509	0	541	39	8	
1	0	0	0	0	500	509	0	536	38	8	
2	0	0	0	0	499	509	0	534	39	8	
3	0	0	0	0	499	508	0	533	39	8	
4	0	0	0	0	504	507	0	531	39	8	
5	0	0	0	0	503	507	0	531	39	8	
6	0	0	0	0	504	506	0	522	39	8	
7	0	0	0	0	503	507	0	510	39	8	
8	0	0	0	0	501	506	0	498	39	8	
9	0	0	0	0	504	506	0	489	38	8	
10	0	0	0	0	503	506	0	484	39	8	
11	0	0	0	0	506	506	0	480	39	8	
12	0	0	0	0	507	506	0	486	39	8	
13	0	0	0	0	508	508	0	475	39	8	
14	0	0	0	0	510	506	0	474	38	8	
15	0	0	0	0	508	504	0	473	38	8	
0	0	0	0	0	506	505	0	471	38	8	
1	0	0	0	0	501	504	0	467	38	8	
2	0	0	0	0	500	504	0	468	39	8	
3	0	0	0	0	499	505	0	467	39	8	
4	0	0	0	0	500	506	0	469	39	8	
5	0	0	0	0	499	505	0	482	39	8	
6	0	0	0	0	502	506	0	508	38	8	
7	0	0	0	0	506	505	0	516	39	8	
8	0	0	0	0	504	506	0	532	39	8	
9	0	0	0	0	504	504	0	538	38	8	
10	0	0	0	0	504	506	0	542	39	8	
11	0	0	0	0	507	505	0	553	39	8	
12	0	0	0	0	509	506	0	551	39	8	
13	0	0	0	0	507	506	0	547	39	8	
14	0	0	0	0	508	507	0	550	39	8	
15	0	0	0	0	508	508	0	553	39	8	
0	0	0	0	0	505	507	0	539	39	8	
1	0	0	0	0	504	506	0	517	38	8	
2	0	0	0	0	501	506	0	501	39	8	
3	0	0	0	0	499	505	0	492	39	8	
4	0	0	0	0	501	504	0	492	39	8	
5	0	0	0	0	502	504	0	498	39	8	
6	0	0	0	0	502	504	0	507	39	9	
7	0	0	0	0	504	504	0	514	39	8	
8	0	0	0	0	506	504	0	526	39	8	
9	0	0	0	0	508	504	0	538	38	8	
10	0	0	0	0	505	503	0	539	39	8	
11	0	0	0	0	505	504	0	538	39	8	
12	0	0	0	0	508	506	0	536	39	8	
13	0	0	0	0	507	505	0	534	39	8	
14	0	0	0	0	508	504	0	533	39	8	
15	0	0	0	0	507	504	0	524	39	8	
0	0	0	0	0	506	505	0	511	39	8	
1	0	0	0	0	506	505	0	499	38	8	
2	0	0	0	0	501	507	0	488	39	8	
3	0	0	0	0	499	508	0	481	39	8	
4	0	0	0	0	499	509	0	476	39	8	
5	0	0	0	0	500	508	0	479	39	8	
6	0	0	0	0	500	506	0	472	39	8	
7	0	0	0	0	502	505	0	471	39	8	
8	0	0	0	0	502	506	0	470	39	8	
9	0	0	0	0	505	505	0	466	38	8	
10	0	0	0	0	506	505	0	467	39	8	
11	0	0	0	0	504	505	0	468	39	8	
12	0	0	0	0	502	506	0	470	39	8	
13	0	0	0	0	503	507	0	473	39	8	
14	0	0	0	0	505	505	0	475	39	8	
15	0	0	0	0	508	504	0	476	39	8	
0	0	0	0	0	508	505	0	473	39	8	
1	0	0	0	0	508	504	0	472	38	8	
2	0	0	0	0	505	504	0	472	39	8	
3	0	0	0	0	504	504	0	471	39	8	
4	0	0	0	0	500	505	0	474	39	8	
5	0	0	0	0	500	506	0	474	39	8	
6	0	0	0	0	499	506	0	474	39	8	
7	0	0	0	0	502	506	0	487	39	8	
8	0	0	0	0	504	507	0	508	39	8	
9	0	0	0	0	505	507	0	515	38	8	
10	0	0	0	0	504	508	0	531	39	8	
11	0	0	0	0	503	509	0	539	39	8	
12	0	0	0	0	504	508	0	543	39	8	
13	0	0	0	0	504	508	0	555	39	8	
14	0	0	0	0	505	508	0	553	39	8	
15	0	0	0	0	505	508	0	559	39	8	
0	0	0	0	0	509	508	0	553	39	8	
1	0	0	0	0	509	508	0	546	38	8	
2	0	0	0	0	507	508	0	551	39	8	
3	0	0	0	0	504	509	0	544	39	8	
4	0	0	0	0	501	506	0	551	39	8	
5	0	0	0	0	500	504	0	550	39	8	
6	0	0	0	0	501	504	0	548	39	8	
7	0	0	0	0	500	506	0	557	39	8	
8	0	0	0	0	503	506	0	551	39	8	
9	0	0	0	0	506	505	0	558	38	9	
10	0	0	0	0	506	505	0	559	39	8	
11	0	0	0	0	504	504	0	555	39	8	
12	0	0	0	0	503	505	0	563	39	8	
13	0	0	0	0	504	504	0	556	39	8	
14	0	0	0	0	505	504	0	560	39	8	
15	0	0	0	0	507	504	0	552	39	8	
0	0	0	0	0	506	506	0	546	39	8	
1	0	0	0	0	507	506	0	544	38	8	
2	0	0	0	0	506	506	0	536	39	9	
3	0	0	0	0	506	506	0	533	39	8	
4	0	0	0	0	501	508	0	532	39	8	
5	0	0	0	0	500	507	0	533	39	8	
6	0	0	0	0	501	508	0	532	39	8	
7	0	0	0	0	502	508	0	531	39	8	
8	0	0	0	0	500	510	0	520	39	8	
9	0	0	0	0	503	509	0	506	38	8	
10	0	0	0	0	505	508	0	497	39	8	
11	0	0	0	0	503	508	0	491	39	8	
12	0	0	0	0	504	506	0	487	39	8	
13	0	0	0	0	507	504	0	481	39	8	
14	0	0	0	0	505	504	0	478	39	8	
15	0	0	0	0	504	506	0	477	39	8	
0	0	0	0	0	506	507	0	475	39	8	
1	0	0	0	0	508	506	0	475	38	8	
2	0	0	0	0	509	505	0	472	39	8	
3	0	0	0	0	506	504	0	473	39	8	
4	0	0	0	0	504	505	0	476	39	8	
5	0	0	0	0	501	504	0	476	39	8	
6	0	0	0	0	500	504	0	480	39	8	
7	0	0	0	0	500	505	0	480	39	8	
8	0	0	0	0	499	506	0	479	39	8	
9	0	0	0	0	500	504	0	487	38	8	
10	0	0	0	0	503	504	0	511	39	8	
11	0	0	0	0	504	505	0	521	39	8	
12	0	0	0	0	504	505	0	540	39	8	
13	0	0	0	0	503	504	0	548	39	8	
14	0	0	0	0	503	504	0	552	39	8	
15	0	0	0	0	508	506	0	561	39	8	
0	0	0	0	0	507	507	0	553	39	8	
1	0	0	0	0	508	507	0	558	38	8	
2	0	0	0	0	508	505	0	556	39	8	
3	0	0	0	0	508	506	0	548	39	8	
4	0	0	0	0	507	505	0	543	39	8	
5	0	0	0	0	503	506	0	538	39	9	
6	0	0	0	0	500	508	0	542	39	8	
7	0	0	0	0	501	508	0	540	39	8	
8	0	0	0	0	498	508	0	547	39	8	
9	0	0	0	0	498	508	0	542	38	8	
10	0	0	0	0	500	507	0	551	39	8	
11	0	0	0	0	504	506	0	545	39	8	
12	0	0	0	0	503	506	0	545	39	8	
13	0	0	0	0	505	505	0	547	39	8	
14	0	0	0	0	505	505	0	533	39	8	
15	0	0	0	0	504	507	0	512	39	8	
0	0	0	0	0	508	507	0	491	39	8	
1	0	0	0	0	507	505	0	477	39	8	
2	0	0	0	0	507	506	0	479	39	8	
3	0	0	0	0	508	507	0	498	39	8	
4	0	0	0	0	509	508	0	508	39	9	
5	0	0	0	0	505	507	0	524	39	8	
6	0	0	0	0	500	505	0	532	39	8	
7	0	0	0	0	502	504	0	531	39	8	
8	0	0	0	0	502	504	0	537	39	8	
9	0	0	0	0	501	505	0	528	39	8	
10	0	0	0	0	502	504	0	533	39	8	
11	0	0	0	0	504	504	0	533	39	8	
12	0	0	0	0	504	504	0	520	39	8	
13	0	0	0	0	505	505	0	507	39	8	
14	0	0	0	0	504	506	0	496	39	8	
15	0	0	0	0	504	508	0	481	39	8	
0	0	0	0	0	504	507	0	471	39	8	
1	0	0	0	0	507	506	0	463	38	8	
2	0	0	0	0	506	507	0	461	39	8	
3	0	0	0	0	511	507	0	463	39	8	
4	0	0	0	0	507	508	0	463	39	8	
5	0	0	0	0	508	508	0	467	39	8	
6	0	0	0	0	504	508	0	471	39	8	
7	0	0	0	0	503	506	0	467	39	8	
8	0	0	0	0	501	506	0	467	39	8	
9	0	0	0	0	502	507	0	463	38	8	
10	0	0	0	0	500	507	0	466	39	8	
11	0	0	0	0	502	508	0	468	39	8	
12	0	0	0	0	503	508	0	470	39	8	
13	0	0	0	0	505	508	0	475	39	8	
14	0	0	0	0	505	507	0	474	39	8	
15	0	0	0	0	503	507	0	473	39	8	
0	0	0	0	0	504	506	0	470	39	8	
1	0	0	0	0	504	504	0	465	38	8	
2	0	0	0	0	507	505	0	467	39	8	
3	0	0	0	0	508	504	0	467	39	8	
4	0	0	0	0	506	504	0	489	39	8	
5	0	0	0	0	506	504	0	512	39	8	
6	0	0	0	0	504	505	0	516	39	8	
7	0	0	0	0	500	503	0	511	39	8	
8	0	0	0	0	500	504	0	501	39	8	
9	0	0	0	0	498	503	0	495	38	8	
10	0	0	0	0	501	503	0	490	39	8	
11	0	0	0	0	499	504	0	487	39	8	
12	0	0	0	0	503	503	0	488	39	8	
13	0	0	0	0	504	503	0	487	39	8	
14	0	0	0	0	504	504	0	487	39	8	
15	0	0	0	0	503	505	0	499	39	8	
0	0	0	0	0	504	504	0	525	39	8	
1	0	0	0	0	505	505	0	533	38	8	
2	0	0	0	0	507	507	0	529	39	8	
3	0	0	0	0	507	506	0	519	39	8	
4	0	0	0	0	509	508	0	511	39	8	
5	0	0	0	0	511	508	0	505	39	8	
6	0	0	0	0	506	510	0	500	39	8	
7	0	0	0	0	506	511	0	497	39	8	
8	0	0	0	0	501	510	0	493	39	8	
9	0	0	0	0	500	509	0	489	38	8	
10	0	0	0	0	499	509	0	485	39	8	
11	0	0	0	0	500	507	0	486	39	8	
12	0	0	0	0	501	505	0	487	39	8	
13	0	0	0	0	503	506	0	505	39	8	
14	0	0	0	0	505	505	0	527	39	8	
15	0	0	0	0	505	504	0	527	39	8	
0	0	0	0	0	506	504	0	520	39	8	
1	0	0	0	0	506	505	0	508	38	8	
2	0	0	0	0	502	507	0	499	39	8	
3	0	0	0	0	506	507	0	508	39	8	
4	0	0	0	0	508	506	0	529	39	8	
5	0	0	0	0	508	505	0	534	39	8	
6	0	0	0	0	507	505	0	528	39	8	
7	0	0	0	0	507	506	0	515	39	8	
8	0	0	0	0	502	506	0	502	39	8	
9	0	0	0	0	500	505	0	491	38	8	
10	0	0	0	0	498	504	0	491	39	8	
11	0	0	0	0	498	505	0	508	39	8	
12	0	0	0	0	497	506	0	519	39	8	
13	0	0	0	0	499	508	0	519	39	8	
14	0	0	0	0	503	505	0	513	39	8	
15	0	0	0	0	504	505	0	503	39	8	
0	0	0	0	0	507	505	0	492	39	8	
1	0	0	0	0	504	505	0	486	38	8	
2	0	0	0	0	503	508	0	484	39	8	
3	0	0	0	0	504	507	0	480	39	8	
4	0	0	0	0	505	505	0	480	39	8	
5	0	0	0	0	504	504	0	481	39	8	
6	0	0	0	0	506	505	0	477	39	8	
7	0	0	0	0	507	504	0	489	39	8	
8	0	0	0	0	507	503	0	513	39	8	
9	0	0	0	0	501	502	0	521	38	8	
10	0	0	0	0	500	502	0	541	39	8	
11	0	0	0	0	499	502	0	548	39	8	
12	0	0	0	0	500	503	0	559	39	8	
13	0	0	0	0	499	504	0	562	39	8	
14	0	0	0	0	501	505	0	557	39	8	
15	0	0	0	0	505	505	0	561	39	8	
0	0	0	0	0	508	505	0	559	39	8	
1	0	0	0	0	507	505	0	554	38	8	
2	0	0	0	0	508	504	0	560	39	8	
3	0	0	0	0	504	506	0	558	39	8	
4	0	0	0	0	509	507	0	534	39	8	
5	0	0	0	0	507	506	0	516	39	8	
6	0	0	0	0	506	507	0	501	39	8	
7	0	0	0	0	508	506	0	499	39	8	
8	0	0	0	0	508	504	0	519	39	8	
9	0	0	0	0	507	507	0	524	38	8	
10	0	0	0	0	504	507	0	533	39	8	
11	0	0	0	0	501	508	0	545	39	8	
12	0	0	0	0	500	508	0	543	39	8	
13	0	0	0	0	494	506	0	538	39	8	
14	0	0	0	0	499	506	0	535	39	8	
15	0	0	0	0	499	506	0	531	39	8	
0	0	0	0	0	504	506	0	519	39	8	
1	0	0	0	0	503	505	0	506	38	8	
2	0	0	0	0	503	505	0	494	39	8	
3	0	0	0	0	505	504	0	500	39	8	
4	0	0	0	0	505	505	0	479	39	8	
5	0	0	0	0	507	505	0	475	39	8	
6	0	0	0	0	509	507	0	469	39	8	
7	0	0	0	0	507	507	0	471	39	8	
8	0	0	0	0	511	507	0	465	39	8	
9	0	0	0	0	508	508	0	462	38	8	
10	0	0	0	0	504	508	0	462	39	9	
11	0	0	0	0	501	508	0	463	39	8	
12	0	0	0	0	501	510	0	467	39	8	
13	0	0	0	0	501	510	0	465	39	8	
14	0	0	0	0	498	510	0	468	39	8	
15	0	0	0	0	501	510	0	482	39	8	
0	0	0	0	0	502	509	0	507	39	8	
1	0	0	0	0	504	508	0	517	38	9	
2	0	0	0	0	503	507	0	536	39	9	
3	0	0	0	0	503	505	0	547	39	8	
4	0	0	0	0	503	504	0	551	39	8	
5	0	0	0	0	505	504	0	559	39	8	
6	0	0	0	0	505	505	0	553	39	8	
7	0	0	0	0	509	506	0	545	39	8	
8	0	0	0	0	508	506	0	539	39	8	
9	0	0	0	0	509	506	0	534	38	9	
10	0	0	0	0	507	505	0	523	39	9	
11	0	0	0	0	504	506	0	511	39	9	
12	0	0	0	0	503	506	0	498	39	8	
13	0	0	0	0	501	507	0	491	39	8	
14	0	0	0	0	502	508	0	485	39	8	
15	0	0	0	0	499	507	0	481	39	8	
0	0	0	0	0	500	508	0	481	39	8	
1	0	0	0	0	502	509	0	482	38	9	
2	0	0	0	0	503	510	0	480	39	9	
3	0	0	0	0	506	510	0	481	39	9	
4	0	0	0	0	505	508	0	481	39	8	
5	0	0	0	0	503	508	0	482	39	8	
6	0	0	0	0	507	509	0	483	39	8	
7	0	0	0	0	508	507	0	481	39	8	
8	0	0	0	0	508	507	0	489	39	8	
9	0	0	0	0	510	506	0	506	38	8	
10	0	0	0	0	511	505	0	515	39	9	
11	0	0	0	0	507	506	0	535	39	9	
12	0	0	0	0	501	506	0	545	39	8	
13	0	0	0	0	502	505	0	549	39	8	
14	0	0	0	0	501	505	0	561	39	8	
15	0	0	0	0	499	507	0	555	39	8	
0	0	0	0	0	502	507	0	560	39	8	
1	0	0	0	0	504	506	0	560	38	8	
2	0	0	0	0	504	507	0	560	39	9	
3	0	0	0	0	503	504	0	568	39	9	
4	0	0	0	0	502	505	0	562	39	9	
5	0	0	0	0	504	504	0	557	39	8	
6	0	0	0	0	505	506	0	551	39	8	
7	0	0	0	0	507	508	0	549	39	8	
8	0	0	0	0	510	507	0	540	38	8	
9	0	0	0	0	506	507	0	542	38	9	
10	0	0	0	0	507	508	0	515	38	8	
11	0	0	0	0	509	508	0	506	38	9	
12	0	0	0	0	506	510	0	497	39	9	
13	0	0	0	0	501	508	0	491	39	8	
14	0	0	0	0	498	508	0	489	39	8	
15	0	0	0	0	500	507	0	485	39	8	
0	0	0	0	0	499	508	0	484	39	8	
1	0	0	0	0	501	509	0	489	38	9	
2	0	0	0	0	504	508	0	512	39	8	
3	0	0	0	0	505	507	0	521	39	9	
4	0	0	0	0	504	508	0	537	38	9	
5	0	0	0	0	503	509	0	549	39	8	
6	0	0	0	0	504	509	0	547	39	8	
7	0	0	0	0	504	507	0	558	39	8	
8	0	0	0	0	504	508	0	550	39	8	
9	0	0	0	0	509	507	0	543	38	8	
10	0	0	0	0	508	507	0	539	39	8	
11	0	0	0	0	507	508	0	536	39	9	
12	0	0	0	0	507	508	0	529	39	9	
13	0	0	0	0	505	507	0	515	39	9	
14	0	0	0	0	502	507	0	505	39	8	
15	0	0	0	0	499	507	0	496	39	8	
0	0	0	0	0	499	507	0	488	39	8	
1	0	0	0	0	500	508	0	482	38	8	
2	0	0	0	0	502	507	0	481	39	9	
3	0	0	0	0	503	506	0	478	39	9	
4	0	0	0	0	502	505	0	477	39	9	
5	0	0	0	0	504	504	0	478	39	9	
